2021-06-10 02:58:18 PM,-,1623329808000,
2021-06-10 02:58:18 PM,-,1623329808003,
2021-06-10 02:58:18 PM,-,1623329808006,
2021-06-10 02:58:18 PM,-,1623329808010,
2021-06-10 02:58:18 PM,-,1623329808013,
2021-06-10 02:58:18 PM,-,1623329808016,
2021-06-10 02:58:18 PM,-,1623329808020,
2021-06-10 02:58:18 PM,-,1623329808023,
2021-06-10 02:58:18 PM,-,1623329808026,
2021-06-10 02:58:18 PM,-,1623329808030,
2021-06-10 02:58:18 PM,-,1623329808033,
2021-06-10 02:58:18 PM,-,1623329808036,
2021-06-10 02:58:18 PM,-,1623329808040,
2021-06-10 02:58:18 PM,-,1623329808043,
2021-06-10 02:58:18 PM,-,1623329808046,
2021-06-10 02:58:18 PM,-,1623329808050,
2021-06-10 02:58:18 PM,-,1623329808053,
2021-06-10 02:58:18 PM,-,1623329808056,
2021-06-10 02:58:18 PM,-,1623329808060,
2021-06-10 02:58:18 PM,-,1623329808063,
2021-06-10 02:58:18 PM,-,1623329808066,
2021-06-10 02:58:18 PM,-,1623329808070,
2021-06-10 02:58:18 PM,-,1623329808073,
2021-06-10 02:58:18 PM,-,1623329808076,
2021-06-10 02:58:18 PM,-,1623329808080,
2021-06-10 02:58:18 PM,-,1623329808083,
2021-06-10 02:58:18 PM,-,1623329808086,
2021-06-10 02:58:18 PM,-,1623329808090,
2021-06-10 02:58:18 PM,-,1623329808093,
2021-06-10 02:58:18 PM,-,1623329808096,
2021-06-10 02:58:18 PM,-,1623329808100,
2021-06-10 02:58:18 PM,-,1623329808103,
2021-06-10 02:58:18 PM,-,1623329808106,
2021-06-10 02:58:18 PM,-,1623329808110,
2021-06-10 02:58:18 PM,-,1623329808113,
2021-06-10 02:58:18 PM,-,1623329808116,
2021-06-10 02:58:18 PM,-,1623329808120,
2021-06-10 02:58:18 PM,-,1623329808123,
2021-06-10 02:58:18 PM,-,1623329808126,
2021-06-10 02:58:18 PM,-,1623329808130,
2021-06-10 02:58:18 PM,-,1623329808133,
2021-06-10 02:58:18 PM,-,1623329808136,
2021-06-10 02:58:18 PM,-,1623329808140,
2021-06-10 02:58:18 PM,-,1623329808143,
2021-06-10 02:58:18 PM,-,1623329808146,
2021-06-10 02:58:18 PM,-,1623329808150,
2021-06-10 02:58:18 PM,-,1623329808153,
2021-06-10 02:58:18 PM,-,1623329808156,
2021-06-10 02:58:18 PM,-,1623329808160,
2021-06-10 02:58:18 PM,-,1623329808163,
2021-06-10 02:58:18 PM,-,1623329808166,
2021-06-10 02:58:18 PM,-,1623329808170,
2021-06-10 02:58:18 PM,-,1623329808173,
2021-06-10 02:58:18 PM,-,1623329808176,
2021-06-10 02:58:18 PM,-,1623329808180,
2021-06-10 02:58:18 PM,-,1623329808183,
2021-06-10 02:58:18 PM,-,1623329808186,
2021-06-10 02:58:18 PM,-,1623329808190,
2021-06-10 02:58:18 PM,-,1623329808193,
2021-06-10 02:58:18 PM,-,1623329808196,
2021-06-10 02:58:18 PM,-,1623329808200,
2021-06-10 02:58:18 PM,-,1623329808203,
2021-06-10 02:58:18 PM,-,1623329808206,
2021-06-10 02:58:18 PM,-,1623329808210,
2021-06-10 02:58:18 PM,-,1623329808213,
2021-06-10 02:58:18 PM,-,1623329808216,
2021-06-10 02:58:18 PM,-,1623329808220,
2021-06-10 02:58:18 PM,-,1623329808223,
2021-06-10 02:58:18 PM,-,1623329808226,
2021-06-10 02:58:18 PM,-,1623329808230,
2021-06-10 02:58:18 PM,-,1623329808233,
2021-06-10 02:58:18 PM,-,1623329808236,
2021-06-10 02:58:18 PM,-,1623329808240,
2021-06-10 02:58:18 PM,-,1623329808243,
2021-06-10 02:58:18 PM,-,1623329808246,
2021-06-10 02:58:18 PM,-,1623329808250,
2021-06-10 02:58:18 PM,-,1623329808253,
2021-06-10 02:58:18 PM,-,1623329808256,
2021-06-10 02:58:18 PM,-,1623329808260,
2021-06-10 02:58:18 PM,-,1623329808263,
2021-06-10 02:58:18 PM,-,1623329808266,
2021-06-10 02:58:18 PM,-,1623329808270,
2021-06-10 02:58:18 PM,-,1623329808273,
2021-06-10 02:58:18 PM,-,1623329808276,
2021-06-10 02:58:18 PM,-,1623329808280,
2021-06-10 02:58:18 PM,-,1623329808283,
2021-06-10 02:58:18 PM,-,1623329808286,
2021-06-10 02:58:18 PM,-,1623329808290,
2021-06-10 02:58:18 PM,-,1623329808293,
2021-06-10 02:58:18 PM,-,1623329808296,
2021-06-10 02:58:18 PM,-,1623329808300,
2021-06-10 02:58:18 PM,-,1623329808303,
2021-06-10 02:58:18 PM,-,1623329808306,
2021-06-10 02:58:18 PM,-,1623329808310,
2021-06-10 02:58:18 PM,-,1623329808313,
2021-06-10 02:58:18 PM,-,1623329808316,
2021-06-10 02:58:18 PM,-,1623329808320,
2021-06-10 02:58:18 PM,-,1623329808323,
2021-06-10 02:58:18 PM,-,1623329808326,
2021-06-10 02:58:18 PM,-,1623329808330,
2021-06-10 02:58:18 PM,-,1623329808333,
2021-06-10 02:58:18 PM,-,1623329808336,
2021-06-10 02:58:18 PM,-,1623329808340,
2021-06-10 02:58:18 PM,-,1623329808343,
2021-06-10 02:58:18 PM,-,1623329808346,
2021-06-10 02:58:18 PM,-,1623329808350,
2021-06-10 02:58:18 PM,-,1623329808353,
2021-06-10 02:58:18 PM,-,1623329808356,
2021-06-10 02:58:18 PM,-,1623329808360,
2021-06-10 02:58:18 PM,-,1623329808363,
2021-06-10 02:58:18 PM,-,1623329808366,
2021-06-10 02:58:18 PM,-,1623329808370,
2021-06-10 02:58:18 PM,-,1623329808373,
2021-06-10 02:58:18 PM,-,1623329808376,
2021-06-10 02:58:18 PM,-,1623329808380,
2021-06-10 02:58:18 PM,-,1623329808383,
2021-06-10 02:58:18 PM,-,1623329808386,
2021-06-10 02:58:18 PM,-,1623329808390,
2021-06-10 02:58:18 PM,-,1623329808393,
2021-06-10 02:58:18 PM,-,1623329808396,
2021-06-10 02:58:18 PM,-,1623329808400,
2021-06-10 02:58:18 PM,-,1623329808403,
2021-06-10 02:58:18 PM,-,1623329808406,
2021-06-10 02:58:18 PM,-,1623329808410,
2021-06-10 02:58:18 PM,-,1623329808413,
2021-06-10 02:58:18 PM,-,1623329808416,
2021-06-10 02:58:18 PM,-,1623329808420,
2021-06-10 02:58:18 PM,-,1623329808423,
2021-06-10 02:58:18 PM,-,1623329808426,
2021-06-10 02:58:18 PM,-,1623329808430,
2021-06-10 02:58:18 PM,-,1623329808433,
2021-06-10 02:58:18 PM,-,1623329808436,
2021-06-10 02:58:18 PM,-,1623329808440,
2021-06-10 02:58:18 PM,-,1623329808443,
2021-06-10 02:58:18 PM,-,1623329808446,
2021-06-10 02:58:18 PM,-,1623329808450,
2021-06-10 02:58:18 PM,-,1623329808453,
2021-06-10 02:58:18 PM,-,1623329808456,
2021-06-10 02:58:18 PM,-,1623329808460,
2021-06-10 02:58:18 PM,-,1623329808463,
2021-06-10 02:58:18 PM,-,1623329808466,
2021-06-10 02:58:18 PM,-,1623329808470,
2021-06-10 02:58:18 PM,-,1623329808473,
2021-06-10 02:58:18 PM,-,1623329808476,
2021-06-10 02:58:18 PM,-,1623329808480,
2021-06-10 02:58:18 PM,-,1623329808483,
2021-06-10 02:58:18 PM,-,1623329808486,
2021-06-10 02:58:18 PM,-,1623329808490,
2021-06-10 02:58:18 PM,-,1623329808493,
2021-06-10 02:58:18 PM,-,1623329808496,
2021-06-10 02:58:18 PM,-,1623329808500,
2021-06-10 02:58:18 PM,-,1623329808503,
2021-06-10 02:58:18 PM,-,1623329808506,
2021-06-10 02:58:18 PM,-,1623329808510,
2021-06-10 02:58:18 PM,-,1623329808513,
2021-06-10 02:58:18 PM,-,1623329808516,
2021-06-10 02:58:18 PM,-,1623329808520,
2021-06-10 02:58:18 PM,-,1623329808523,
2021-06-10 02:58:18 PM,-,1623329808526,
2021-06-10 02:58:18 PM,-,1623329808530,
2021-06-10 02:58:18 PM,-,1623329808533,
2021-06-10 02:58:18 PM,-,1623329808536,
2021-06-10 02:58:18 PM,-,1623329808540,
2021-06-10 02:58:18 PM,-,1623329808543,
2021-06-10 02:58:18 PM,-,1623329808546,
2021-06-10 02:58:18 PM,-,1623329808550,
2021-06-10 02:58:18 PM,-,1623329808553,
2021-06-10 02:58:18 PM,-,1623329808556,
2021-06-10 02:58:18 PM,-,1623329808560,
2021-06-10 02:58:18 PM,-,1623329808563,
2021-06-10 02:58:18 PM,-,1623329808566,
2021-06-10 02:58:18 PM,-,1623329808570,
2021-06-10 02:58:18 PM,-,1623329808573,
2021-06-10 02:58:18 PM,-,1623329808576,
2021-06-10 02:58:18 PM,-,1623329808580,
2021-06-10 02:58:18 PM,-,1623329808583,
2021-06-10 02:58:18 PM,-,1623329808586,
2021-06-10 02:58:18 PM,-,1623329808590,
2021-06-10 02:58:18 PM,-,1623329808593,
2021-06-10 02:58:18 PM,-,1623329808596,
2021-06-10 02:58:18 PM,-,1623329808600,
2021-06-10 02:58:18 PM,-,1623329808603,
2021-06-10 02:58:18 PM,-,1623329808606,
2021-06-10 02:58:18 PM,-,1623329808610,
2021-06-10 02:58:18 PM,-,1623329808613,
2021-06-10 02:58:18 PM,-,1623329808616,
2021-06-10 02:58:18 PM,-,1623329808620,
2021-06-10 02:58:18 PM,-,1623329808623,
2021-06-10 02:58:18 PM,-,1623329808626,
2021-06-10 02:58:18 PM,-,1623329808630,
2021-06-10 02:58:18 PM,-,1623329808633,
2021-06-10 02:58:18 PM,-,1623329808636,
2021-06-10 02:58:18 PM,-,1623329808640,
2021-06-10 02:58:18 PM,-,1623329808643,
2021-06-10 02:58:18 PM,-,1623329808646,
2021-06-10 02:58:18 PM,-,1623329808650,
2021-06-10 02:58:18 PM,-,1623329808653,
2021-06-10 02:58:18 PM,-,1623329808656,
2021-06-10 02:58:18 PM,-,1623329808660,
2021-06-10 02:58:18 PM,-,1623329808663,
2021-06-10 02:58:18 PM,-,1623329808666,
2021-06-10 02:58:18 PM,-,1623329808670,
2021-06-10 02:58:18 PM,-,1623329808673,
2021-06-10 02:58:18 PM,-,1623329808676,
2021-06-10 02:58:18 PM,-,1623329808680,
2021-06-10 02:58:18 PM,-,1623329808683,
2021-06-10 02:58:18 PM,-,1623329808686,
2021-06-10 02:58:18 PM,-,1623329808690,
2021-06-10 02:58:18 PM,-,1623329808693,
2021-06-10 02:58:18 PM,-,1623329808696,
2021-06-10 02:58:18 PM,-,1623329808700,
2021-06-10 02:58:18 PM,-,1623329808703,
2021-06-10 02:58:18 PM,-,1623329808706,
2021-06-10 02:58:18 PM,-,1623329808710,
2021-06-10 02:58:18 PM,-,1623329808713,
2021-06-10 02:58:18 PM,-,1623329808716,
2021-06-10 02:58:18 PM,-,1623329808720,
2021-06-10 02:58:18 PM,-,1623329808723,
2021-06-10 02:58:18 PM,-,1623329808726,
2021-06-10 02:58:18 PM,-,1623329808730,
2021-06-10 02:58:18 PM,-,1623329808733,
2021-06-10 02:58:18 PM,-,1623329808736,
2021-06-10 02:58:18 PM,-,1623329808740,
2021-06-10 02:58:18 PM,-,1623329808743,
2021-06-10 02:58:18 PM,-,1623329808746,
2021-06-10 02:58:18 PM,-,1623329808750,
2021-06-10 02:58:18 PM,-,1623329808753,
2021-06-10 02:58:18 PM,-,1623329808756,
2021-06-10 02:58:18 PM,-,1623329808760,
2021-06-10 02:58:18 PM,-,1623329808763,
2021-06-10 02:58:18 PM,-,1623329808766,
2021-06-10 02:58:18 PM,-,1623329808770,
2021-06-10 02:58:18 PM,-,1623329808773,
2021-06-10 02:58:18 PM,-,1623329808776,
2021-06-10 02:58:18 PM,-,1623329808780,
2021-06-10 02:58:18 PM,-,1623329808783,
2021-06-10 02:58:18 PM,-,1623329808786,
2021-06-10 02:58:18 PM,-,1623329808790,
2021-06-10 02:58:18 PM,-,1623329808793,
2021-06-10 02:58:18 PM,-,1623329808796,
2021-06-10 02:58:18 PM,-,1623329808800,
2021-06-10 02:58:18 PM,-,1623329808803,
2021-06-10 02:58:18 PM,-,1623329808806,
2021-06-10 02:58:18 PM,-,1623329808810,
2021-06-10 02:58:18 PM,-,1623329808813,
2021-06-10 02:58:18 PM,-,1623329808816,
2021-06-10 02:58:18 PM,-,1623329808820,
2021-06-10 02:58:18 PM,-,1623329808823,
2021-06-10 02:58:18 PM,-,1623329808826,
2021-06-10 02:58:18 PM,-,1623329808830,
2021-06-10 02:58:18 PM,-,1623329808833,
2021-06-10 02:58:18 PM,-,1623329808836,
2021-06-10 02:58:18 PM,-,1623329808840,
2021-06-10 02:58:18 PM,-,1623329808843,
2021-06-10 02:58:18 PM,-,1623329808846,
2021-06-10 02:58:18 PM,-,1623329808850,
2021-06-10 02:58:18 PM,-,1623329808853,
2021-06-10 02:58:18 PM,-,1623329808856,
2021-06-10 02:58:18 PM,-,1623329808860,
2021-06-10 02:58:18 PM,-,1623329808863,
2021-06-10 02:58:18 PM,-,1623329808866,
2021-06-10 02:58:18 PM,-,1623329808870,
2021-06-10 02:58:18 PM,-,1623329808873,
2021-06-10 02:58:18 PM,-,1623329808876,
2021-06-10 02:58:18 PM,-,1623329808880,
2021-06-10 02:58:18 PM,-,1623329808883,
2021-06-10 02:58:18 PM,-,1623329808886,
2021-06-10 02:58:18 PM,-,1623329808890,
2021-06-10 02:58:18 PM,-,1623329808893,
2021-06-10 02:58:18 PM,-,1623329808896,
2021-06-10 02:58:18 PM,-,1623329808900,
2021-06-10 02:58:18 PM,-,1623329808903,
2021-06-10 02:58:18 PM,-,1623329808906,
2021-06-10 02:58:18 PM,-,1623329808910,
2021-06-10 02:58:18 PM,-,1623329808913,
2021-06-10 02:58:18 PM,-,1623329808916,
2021-06-10 02:58:18 PM,-,1623329808920,
2021-06-10 02:58:18 PM,-,1623329808923,
2021-06-10 02:58:18 PM,-,1623329808926,
2021-06-10 02:58:18 PM,-,1623329808930,
2021-06-10 02:58:18 PM,-,1623329808933,
2021-06-10 02:58:18 PM,-,1623329808936,
2021-06-10 02:58:18 PM,-,1623329808940,
2021-06-10 02:58:18 PM,-,1623329808943,
2021-06-10 02:58:18 PM,-,1623329808946,
2021-06-10 02:58:18 PM,-,1623329808950,
2021-06-10 02:58:18 PM,-,1623329808953,
2021-06-10 02:58:18 PM,-,1623329808956,
2021-06-10 02:58:18 PM,-,1623329808960,
2021-06-10 02:58:18 PM,-,1623329808963,
2021-06-10 02:58:18 PM,-,1623329808966,
2021-06-10 02:58:18 PM,-,1623329808970,
2021-06-10 02:58:18 PM,-,1623329808973,
2021-06-10 02:58:18 PM,-,1623329808976,
2021-06-10 02:58:18 PM,-,1623329808980,
2021-06-10 02:58:18 PM,-,1623329808983,
2021-06-10 02:58:18 PM,-,1623329808986,
2021-06-10 02:58:18 PM,-,1623329808990,
2021-06-10 02:58:18 PM,-,1623329808993,
2021-06-10 02:58:18 PM,-,1623329808996,
2021-06-10 02:58:19 PM,-,1623329809000,
2021-06-10 02:58:19 PM,-,1623329809003,
2021-06-10 02:58:19 PM,-,1623329809006,
2021-06-10 02:58:19 PM,-,1623329809010,
2021-06-10 02:58:19 PM,-,1623329809013,
2021-06-10 02:58:19 PM,-,1623329809016,
2021-06-10 02:58:19 PM,-,1623329809020,
2021-06-10 02:58:19 PM,-,1623329809023,
2021-06-10 02:58:19 PM,-,1623329809026,
2021-06-10 02:58:19 PM,-,1623329809030,
2021-06-10 02:58:19 PM,-,1623329809033,
2021-06-10 02:58:19 PM,-,1623329809036,
2021-06-10 02:58:19 PM,-,1623329809040,
2021-06-10 02:58:19 PM,-,1623329809043,
2021-06-10 02:58:19 PM,-,1623329809046,
2021-06-10 02:58:19 PM,-,1623329809050,
2021-06-10 02:58:19 PM,-,1623329809053,
2021-06-10 02:58:19 PM,-,1623329809056,
2021-06-10 02:58:19 PM,-,1623329809060,
2021-06-10 02:58:19 PM,-,1623329809063,
2021-06-10 02:58:19 PM,-,1623329809066,
2021-06-10 02:58:19 PM,-,1623329809070,
2021-06-10 02:58:19 PM,-,1623329809073,
2021-06-10 02:58:19 PM,-,1623329809076,
2021-06-10 02:58:19 PM,-,1623329809080,
2021-06-10 02:58:19 PM,-,1623329809083,
2021-06-10 02:58:19 PM,-,1623329809086,
2021-06-10 02:58:19 PM,-,1623329809090,
2021-06-10 02:58:19 PM,-,1623329809093,
2021-06-10 02:58:19 PM,-,1623329809096,
2021-06-10 02:58:19 PM,-,1623329809100,
2021-06-10 02:58:19 PM,-,1623329809103,
2021-06-10 02:58:19 PM,-,1623329809106,
2021-06-10 02:58:19 PM,-,1623329809110,
2021-06-10 02:58:19 PM,-,1623329809113,
2021-06-10 02:58:19 PM,-,1623329809116,
2021-06-10 02:58:19 PM,-,1623329809120,
2021-06-10 02:58:19 PM,-,1623329809123,
2021-06-10 02:58:19 PM,-,1623329809126,
2021-06-10 02:58:19 PM,-,1623329809130,
2021-06-10 02:58:19 PM,-,1623329809133,
2021-06-10 02:58:19 PM,-,1623329809136,
2021-06-10 02:58:19 PM,-,1623329809140,
2021-06-10 02:58:19 PM,-,1623329809143,
2021-06-10 02:58:19 PM,-,1623329809146,
2021-06-10 02:58:19 PM,-,1623329809150,
2021-06-10 02:58:19 PM,-,1623329809153,
2021-06-10 02:58:19 PM,-,1623329809156,
2021-06-10 02:58:19 PM,-,1623329809160,
2021-06-10 02:58:19 PM,-,1623329809163,
2021-06-10 02:58:19 PM,-,1623329809166,
2021-06-10 02:58:19 PM,-,1623329809170,
2021-06-10 02:58:19 PM,-,1623329809173,
2021-06-10 02:58:19 PM,-,1623329809176,
2021-06-10 02:58:19 PM,-,1623329809180,
2021-06-10 02:58:19 PM,-,1623329809183,
2021-06-10 02:58:19 PM,-,1623329809186,
2021-06-10 02:58:19 PM,-,1623329809190,
2021-06-10 02:58:19 PM,-,1623329809193,
2021-06-10 02:58:19 PM,-,1623329809196,
2021-06-10 02:58:19 PM,-,1623329809200,
2021-06-10 02:58:19 PM,-,1623329809203,
2021-06-10 02:58:19 PM,-,1623329809206,
2021-06-10 02:58:19 PM,-,1623329809210,
2021-06-10 02:58:19 PM,-,1623329809213,
2021-06-10 02:58:19 PM,-,1623329809216,
2021-06-10 02:58:19 PM,-,1623329809220,
2021-06-10 02:58:19 PM,-,1623329809223,
2021-06-10 02:58:19 PM,-,1623329809226,
2021-06-10 02:58:19 PM,-,1623329809230,
2021-06-10 02:58:19 PM,-,1623329809233,
2021-06-10 02:58:19 PM,-,1623329809236,
2021-06-10 02:58:19 PM,-,1623329809240,
2021-06-10 02:58:19 PM,-,1623329809243,
2021-06-10 02:58:19 PM,-,1623329809246,
2021-06-10 02:58:19 PM,-,1623329809250,
2021-06-10 02:58:19 PM,-,1623329809253,
2021-06-10 02:58:19 PM,-,1623329809256,
2021-06-10 02:58:19 PM,-,1623329809260,
2021-06-10 02:58:19 PM,-,1623329809263,
2021-06-10 02:58:19 PM,-,1623329809266,
2021-06-10 02:58:19 PM,-,1623329809270,
2021-06-10 02:58:19 PM,-,1623329809273,
2021-06-10 02:58:19 PM,-,1623329809276,
2021-06-10 02:58:19 PM,-,1623329809280,
2021-06-10 02:58:19 PM,-,1623329809283,
2021-06-10 02:58:19 PM,-,1623329809286,
2021-06-10 02:58:19 PM,-,1623329809290,
2021-06-10 02:58:19 PM,-,1623329809293,
2021-06-10 02:58:19 PM,-,1623329809296,
2021-06-10 02:58:19 PM,-,1623329809300,
2021-06-10 02:58:19 PM,-,1623329809303,
2021-06-10 02:58:19 PM,-,1623329809306,
2021-06-10 02:58:19 PM,-,1623329809310,
2021-06-10 02:58:19 PM,-,1623329809313,
2021-06-10 02:58:19 PM,-,1623329809316,
2021-06-10 02:58:19 PM,-,1623329809320,
2021-06-10 02:58:19 PM,-,1623329809323,
2021-06-10 02:58:19 PM,-,1623329809326,
2021-06-10 02:58:19 PM,-,1623329809330,
2021-06-10 02:58:19 PM,-,1623329809333,
2021-06-10 02:58:19 PM,-,1623329809336,
2021-06-10 02:58:19 PM,-,1623329809340,
2021-06-10 02:58:19 PM,-,1623329809343,
2021-06-10 02:58:19 PM,-,1623329809346,
2021-06-10 02:58:19 PM,-,1623329809350,
2021-06-10 02:58:19 PM,-,1623329809353,
2021-06-10 02:58:19 PM,-,1623329809356,
2021-06-10 02:58:19 PM,-,1623329809360,
2021-06-10 02:58:19 PM,-,1623329809363,
2021-06-10 02:58:19 PM,-,1623329809366,
2021-06-10 02:58:19 PM,-,1623329809370,
2021-06-10 02:58:19 PM,-,1623329809373,
2021-06-10 02:58:19 PM,-,1623329809376,
2021-06-10 02:58:19 PM,-,1623329809380,
2021-06-10 02:58:19 PM,-,1623329809383,
2021-06-10 02:58:19 PM,-,1623329809386,
2021-06-10 02:58:19 PM,-,1623329809390,
2021-06-10 02:58:19 PM,-,1623329809393,
2021-06-10 02:58:19 PM,-,1623329809396,
2021-06-10 02:58:19 PM,-,1623329809400,
2021-06-10 02:58:19 PM,-,1623329809403,
2021-06-10 02:58:19 PM,-,1623329809406,
2021-06-10 02:58:19 PM,-,1623329809410,
2021-06-10 02:58:19 PM,-,1623329809413,
2021-06-10 02:58:19 PM,-,1623329809416,
2021-06-10 02:58:19 PM,-,1623329809420,
2021-06-10 02:58:19 PM,-,1623329809423,
2021-06-10 02:58:19 PM,-,1623329809426,
2021-06-10 02:58:19 PM,-,1623329809430,
2021-06-10 02:58:19 PM,-,1623329809433,
2021-06-10 02:58:19 PM,-,1623329809436,
2021-06-10 02:58:19 PM,-,1623329809440,
2021-06-10 02:58:19 PM,-,1623329809443,
2021-06-10 02:58:19 PM,-,1623329809446,
2021-06-10 02:58:19 PM,-,1623329809450,
2021-06-10 02:58:19 PM,-,1623329809453,
2021-06-10 02:58:19 PM,-,1623329809456,
2021-06-10 02:58:19 PM,-,1623329809460,
2021-06-10 02:58:19 PM,-,1623329809463,
2021-06-10 02:58:19 PM,-,1623329809466,
2021-06-10 02:58:19 PM,-,1623329809470,
2021-06-10 02:58:19 PM,-,1623329809473,
2021-06-10 02:58:19 PM,-,1623329809476,
2021-06-10 02:58:19 PM,-,1623329809480,
2021-06-10 02:58:19 PM,-,1623329809483,
2021-06-10 02:58:19 PM,-,1623329809486,
2021-06-10 02:58:19 PM,-,1623329809490,
2021-06-10 02:58:19 PM,-,1623329809493,
2021-06-10 02:58:19 PM,-,1623329809496,
2021-06-10 02:58:19 PM,-,1623329809500,
2021-06-10 02:58:19 PM,-,1623329809503,
2021-06-10 02:58:19 PM,-,1623329809506,
2021-06-10 02:58:19 PM,-,1623329809510,
2021-06-10 02:58:19 PM,-,1623329809513,
2021-06-10 02:58:19 PM,-,1623329809516,
2021-06-10 02:58:19 PM,-,1623329809520,
2021-06-10 02:58:19 PM,-,1623329809523,
2021-06-10 02:58:19 PM,-,1623329809526,
2021-06-10 02:58:19 PM,-,1623329809530,
2021-06-10 02:58:19 PM,-,1623329809533,
2021-06-10 02:58:19 PM,-,1623329809536,
2021-06-10 02:58:19 PM,-,1623329809540,
2021-06-10 02:58:19 PM,-,1623329809543,
2021-06-10 02:58:19 PM,-,1623329809546,
2021-06-10 02:58:19 PM,-,1623329809550,
2021-06-10 02:58:19 PM,-,1623329809553,
2021-06-10 02:58:19 PM,-,1623329809556,
2021-06-10 02:58:19 PM,-,1623329809560,
2021-06-10 02:58:19 PM,-,1623329809563,
2021-06-10 02:58:19 PM,-,1623329809566,
2021-06-10 02:58:19 PM,-,1623329809570,
2021-06-10 02:58:19 PM,-,1623329809573,
2021-06-10 02:58:19 PM,-,1623329809576,
2021-06-10 02:58:19 PM,-,1623329809580,
2021-06-10 02:58:19 PM,-,1623329809583,
2021-06-10 02:58:19 PM,-,1623329809586,
2021-06-10 02:58:19 PM,-,1623329809590,
2021-06-10 02:58:19 PM,-,1623329809593,
2021-06-10 02:58:19 PM,-,1623329809596,
2021-06-10 02:58:19 PM,-,1623329809600,
2021-06-10 02:58:19 PM,-,1623329809603,
2021-06-10 02:58:19 PM,-,1623329809606,
2021-06-10 02:58:19 PM,-,1623329809610,
2021-06-10 02:58:19 PM,-,1623329809613,
2021-06-10 02:58:19 PM,-,1623329809616,
2021-06-10 02:58:19 PM,-,1623329809620,
2021-06-10 02:58:19 PM,-,1623329809623,
2021-06-10 02:58:19 PM,-,1623329809626,
2021-06-10 02:58:19 PM,-,1623329809630,
2021-06-10 02:58:19 PM,-,1623329809633,
2021-06-10 02:58:19 PM,-,1623329809636,
2021-06-10 02:58:19 PM,-,1623329809640,
2021-06-10 02:58:19 PM,-,1623329809643,
2021-06-10 02:58:19 PM,-,1623329809646,
2021-06-10 02:58:19 PM,-,1623329809650,
2021-06-10 02:58:19 PM,-,1623329809653,
2021-06-10 02:58:19 PM,-,1623329809656,
2021-06-10 02:58:19 PM,-,1623329809660,
2021-06-10 02:58:19 PM,-,1623329809663,
2021-06-10 02:58:19 PM,-,1623329809666,
2021-06-10 02:58:19 PM,-,1623329809670,
2021-06-10 02:58:19 PM,-,1623329809673,
2021-06-10 02:58:19 PM,-,1623329809676,
2021-06-10 02:58:19 PM,-,1623329809680,
2021-06-10 02:58:19 PM,-,1623329809683,
2021-06-10 02:58:19 PM,-,1623329809686,
2021-06-10 02:58:19 PM,-,1623329809690,
2021-06-10 02:58:19 PM,-,1623329809693,
2021-06-10 02:58:19 PM,-,1623329809696,
2021-06-10 02:58:19 PM,-,1623329809700,
2021-06-10 02:58:19 PM,-,1623329809703,
2021-06-10 02:58:19 PM,-,1623329809706,
2021-06-10 02:58:19 PM,-,1623329809710,
2021-06-10 02:58:19 PM,-,1623329809713,
2021-06-10 02:58:19 PM,-,1623329809716,
2021-06-10 02:58:19 PM,-,1623329809720,
2021-06-10 02:58:19 PM,-,1623329809723,
2021-06-10 02:58:19 PM,-,1623329809726,
2021-06-10 02:58:19 PM,-,1623329809730,
2021-06-10 02:58:19 PM,-,1623329809733,
2021-06-10 02:58:19 PM,-,1623329809736,
2021-06-10 02:58:19 PM,-,1623329809740,
2021-06-10 02:58:19 PM,-,1623329809743,
2021-06-10 02:58:19 PM,-,1623329809746,
2021-06-10 02:58:19 PM,-,1623329809750,
2021-06-10 02:58:19 PM,-,1623329809753,
2021-06-10 02:58:19 PM,-,1623329809756,
2021-06-10 02:58:19 PM,-,1623329809760,
2021-06-10 02:58:19 PM,-,1623329809763,
2021-06-10 02:58:19 PM,-,1623329809766,
2021-06-10 02:58:19 PM,-,1623329809770,
2021-06-10 02:58:19 PM,-,1623329809773,
2021-06-10 02:58:19 PM,-,1623329809776,
2021-06-10 02:58:19 PM,-,1623329809780,
2021-06-10 02:58:19 PM,-,1623329809783,
2021-06-10 02:58:19 PM,-,1623329809786,
2021-06-10 02:58:19 PM,-,1623329809790,
2021-06-10 02:58:19 PM,-,1623329809793,
2021-06-10 02:58:19 PM,-,1623329809796,
2021-06-10 02:58:19 PM,-,1623329809800,
2021-06-10 02:58:19 PM,-,1623329809803,
2021-06-10 02:58:19 PM,-,1623329809806,
2021-06-10 02:58:19 PM,-,1623329809810,
2021-06-10 02:58:19 PM,-,1623329809813,
2021-06-10 02:58:19 PM,-,1623329809816,
2021-06-10 02:58:19 PM,-,1623329809820,
2021-06-10 02:58:19 PM,-,1623329809823,
2021-06-10 02:58:19 PM,-,1623329809826,
2021-06-10 02:58:19 PM,-,1623329809830,
2021-06-10 02:58:19 PM,-,1623329809833,
2021-06-10 02:58:19 PM,-,1623329809836,
2021-06-10 02:58:19 PM,-,1623329809840,
2021-06-10 02:58:19 PM,-,1623329809843,
2021-06-10 02:58:19 PM,-,1623329809846,
2021-06-10 02:58:19 PM,-,1623329809850,
2021-06-10 02:58:19 PM,-,1623329809853,
2021-06-10 02:58:19 PM,-,1623329809856,
2021-06-10 02:58:19 PM,-,1623329809860,
2021-06-10 02:58:19 PM,-,1623329809863,
2021-06-10 02:58:19 PM,-,1623329809866,
2021-06-10 02:58:19 PM,-,1623329809870,
2021-06-10 02:58:19 PM,-,1623329809873,
2021-06-10 02:58:19 PM,-,1623329809876,
2021-06-10 02:58:19 PM,-,1623329809880,
2021-06-10 02:58:19 PM,-,1623329809883,
2021-06-10 02:58:19 PM,-,1623329809886,
2021-06-10 02:58:19 PM,-,1623329809890,
2021-06-10 02:58:19 PM,-,1623329809893,
2021-06-10 02:58:19 PM,-,1623329809896,
2021-06-10 02:58:19 PM,-,1623329809900,
2021-06-10 02:58:19 PM,-,1623329809903,
2021-06-10 02:58:19 PM,-,1623329809906,
2021-06-10 02:58:19 PM,-,1623329809910,
2021-06-10 02:58:19 PM,-,1623329809913,
2021-06-10 02:58:19 PM,-,1623329809916,
2021-06-10 02:58:19 PM,-,1623329809920,
2021-06-10 02:58:19 PM,-,1623329809923,
2021-06-10 02:58:19 PM,-,1623329809926,
2021-06-10 02:58:19 PM,-,1623329809930,
2021-06-10 02:58:19 PM,-,1623329809933,
2021-06-10 02:58:19 PM,-,1623329809936,
2021-06-10 02:58:19 PM,-,1623329809940,
2021-06-10 02:58:19 PM,-,1623329809943,
2021-06-10 02:58:19 PM,-,1623329809946,
2021-06-10 02:58:19 PM,-,1623329809950,
2021-06-10 02:58:19 PM,-,1623329809953,
2021-06-10 02:58:19 PM,-,1623329809956,
2021-06-10 02:58:19 PM,-,1623329809960,
2021-06-10 02:58:19 PM,-,1623329809963,
2021-06-10 02:58:19 PM,-,1623329809966,
2021-06-10 02:58:19 PM,-,1623329809970,
2021-06-10 02:58:19 PM,-,1623329809973,
2021-06-10 02:58:19 PM,-,1623329809976,
2021-06-10 02:58:19 PM,-,1623329809980,
2021-06-10 02:58:19 PM,-,1623329809983,
2021-06-10 02:58:19 PM,-,1623329809986,
2021-06-10 02:58:19 PM,-,1623329809990,
2021-06-10 02:58:19 PM,-,1623329809993,
2021-06-10 02:58:19 PM,-,1623329809996,
2021-06-10 02:58:20 PM,-,1623329810000,
2021-06-10 02:58:20 PM,-,1623329810003,
2021-06-10 02:58:20 PM,-,1623329810006,
2021-06-10 02:58:20 PM,-,1623329810010,
2021-06-10 02:58:20 PM,-,1623329810013,
2021-06-10 02:58:20 PM,-,1623329810016,
2021-06-10 02:58:20 PM,-,1623329810020,
2021-06-10 02:58:20 PM,-,1623329810023,
2021-06-10 02:58:20 PM,-,1623329810026,
2021-06-10 02:58:20 PM,-,1623329810030,
2021-06-10 02:58:20 PM,-,1623329810033,
2021-06-10 02:58:20 PM,-,1623329810036,
2021-06-10 02:58:20 PM,-,1623329810040,
2021-06-10 02:58:20 PM,-,1623329810043,
2021-06-10 02:58:20 PM,-,1623329810046,
2021-06-10 02:58:20 PM,-,1623329810050,
2021-06-10 02:58:20 PM,-,1623329810053,
2021-06-10 02:58:20 PM,-,1623329810056,
2021-06-10 02:58:20 PM,-,1623329810060,
2021-06-10 02:58:20 PM,-,1623329810063,
2021-06-10 02:58:20 PM,-,1623329810066,
2021-06-10 02:58:20 PM,-,1623329810070,
2021-06-10 02:58:20 PM,-,1623329810073,
2021-06-10 02:58:20 PM,-,1623329810076,
2021-06-10 02:58:20 PM,-,1623329810080,
2021-06-10 02:58:20 PM,-,1623329810083,
2021-06-10 02:58:20 PM,-,1623329810086,
2021-06-10 02:58:20 PM,-,1623329810090,
2021-06-10 02:58:20 PM,-,1623329810093,
2021-06-10 02:58:20 PM,-,1623329810096,
2021-06-10 02:58:20 PM,-,1623329810100,
2021-06-10 02:58:20 PM,-,1623329810103,
2021-06-10 02:58:20 PM,-,1623329810106,
2021-06-10 02:58:20 PM,-,1623329810110,
2021-06-10 02:58:20 PM,-,1623329810113,
2021-06-10 02:58:20 PM,-,1623329810116,
2021-06-10 02:58:20 PM,-,1623329810120,
2021-06-10 02:58:20 PM,-,1623329810123,
2021-06-10 02:58:20 PM,-,1623329810126,
2021-06-10 02:58:20 PM,-,1623329810130,
2021-06-10 02:58:20 PM,-,1623329810133,
2021-06-10 02:58:20 PM,-,1623329810136,
2021-06-10 02:58:20 PM,-,1623329810140,
2021-06-10 02:58:20 PM,-,1623329810143,
2021-06-10 02:58:20 PM,-,1623329810146,
2021-06-10 02:58:20 PM,-,1623329810150,
2021-06-10 02:58:20 PM,-,1623329810153,
2021-06-10 02:58:20 PM,-,1623329810156,
2021-06-10 02:58:20 PM,-,1623329810160,
2021-06-10 02:58:20 PM,-,1623329810163,
2021-06-10 02:58:20 PM,-,1623329810166,
2021-06-10 02:58:20 PM,-,1623329810170,
2021-06-10 02:58:20 PM,-,1623329810173,
2021-06-10 02:58:20 PM,-,1623329810176,
2021-06-10 02:58:20 PM,-,1623329810180,
2021-06-10 02:58:20 PM,-,1623329810183,
2021-06-10 02:58:20 PM,-,1623329810186,
2021-06-10 02:58:20 PM,-,1623329810190,
2021-06-10 02:58:20 PM,-,1623329810193,
2021-06-10 02:58:20 PM,-,1623329810196,
2021-06-10 02:58:20 PM,-,1623329810200,
2021-06-10 02:58:20 PM,-,1623329810203,
2021-06-10 02:58:20 PM,-,1623329810206,
2021-06-10 02:58:20 PM,-,1623329810210,
2021-06-10 02:58:20 PM,-,1623329810213,
2021-06-10 02:58:20 PM,-,1623329810216,
2021-06-10 02:58:20 PM,-,1623329810220,
2021-06-10 02:58:20 PM,-,1623329810223,
2021-06-10 02:58:20 PM,-,1623329810226,
2021-06-10 02:58:20 PM,-,1623329810230,
2021-06-10 02:58:20 PM,-,1623329810233,
2021-06-10 02:58:20 PM,-,1623329810236,
2021-06-10 02:58:20 PM,-,1623329810240,
2021-06-10 02:58:20 PM,-,1623329810243,
2021-06-10 02:58:20 PM,-,1623329810246,
2021-06-10 02:58:20 PM,-,1623329810250,
2021-06-10 02:58:20 PM,-,1623329810253,
2021-06-10 02:58:20 PM,-,1623329810256,
2021-06-10 02:58:20 PM,-,1623329810260,
2021-06-10 02:58:20 PM,-,1623329810263,
2021-06-10 02:58:20 PM,-,1623329810266,
2021-06-10 02:58:20 PM,-,1623329810270,
2021-06-10 02:58:20 PM,-,1623329810273,
2021-06-10 02:58:20 PM,-,1623329810276,
2021-06-10 02:58:20 PM,-,1623329810280,
2021-06-10 02:58:20 PM,-,1623329810283,
2021-06-10 02:58:20 PM,-,1623329810286,
2021-06-10 02:58:20 PM,-,1623329810290,
2021-06-10 02:58:20 PM,-,1623329810293,
2021-06-10 02:58:20 PM,-,1623329810296,
2021-06-10 02:58:20 PM,-,1623329810300,
2021-06-10 02:58:20 PM,-,1623329810303,
2021-06-10 02:58:20 PM,-,1623329810306,
2021-06-10 02:58:20 PM,-,1623329810310,
2021-06-10 02:58:20 PM,-,1623329810313,
2021-06-10 02:58:20 PM,-,1623329810316,
2021-06-10 02:58:20 PM,-,1623329810320,
2021-06-10 02:58:20 PM,-,1623329810323,
2021-06-10 02:58:20 PM,-,1623329810326,
2021-06-10 02:58:20 PM,-,1623329810330,
2021-06-10 02:58:20 PM,-,1623329810333,
2021-06-10 02:58:20 PM,-,1623329810336,
2021-06-10 02:58:20 PM,-,1623329810340,
2021-06-10 02:58:20 PM,-,1623329810343,
2021-06-10 02:58:20 PM,-,1623329810346,
2021-06-10 02:58:20 PM,-,1623329810350,
2021-06-10 02:58:20 PM,-,1623329810353,
2021-06-10 02:58:20 PM,-,1623329810356,
2021-06-10 02:58:20 PM,-,1623329810360,
2021-06-10 02:58:20 PM,-,1623329810363,
2021-06-10 02:58:20 PM,-,1623329810366,
2021-06-10 02:58:20 PM,-,1623329810370,
2021-06-10 02:58:20 PM,-,1623329810373,
2021-06-10 02:58:20 PM,-,1623329810376,
2021-06-10 02:58:20 PM,-,1623329810380,
2021-06-10 02:58:20 PM,-,1623329810383,
2021-06-10 02:58:20 PM,-,1623329810386,
2021-06-10 02:58:20 PM,-,1623329810390,
2021-06-10 02:58:20 PM,-,1623329810393,
2021-06-10 02:58:20 PM,-,1623329810396,
2021-06-10 02:58:20 PM,-,1623329810400,
2021-06-10 02:58:20 PM,-,1623329810403,
2021-06-10 02:58:20 PM,-,1623329810406,
2021-06-10 02:58:20 PM,-,1623329810410,
2021-06-10 02:58:20 PM,-,1623329810413,
2021-06-10 02:58:20 PM,-,1623329810416,
2021-06-10 02:58:20 PM,-,1623329810420,
2021-06-10 02:58:20 PM,-,1623329810423,
2021-06-10 02:58:20 PM,-,1623329810426,
2021-06-10 02:58:20 PM,-,1623329810430,
2021-06-10 02:58:20 PM,-,1623329810433,
2021-06-10 02:58:20 PM,-,1623329810436,
2021-06-10 02:58:20 PM,-,1623329810440,
2021-06-10 02:58:20 PM,-,1623329810443,
2021-06-10 02:58:20 PM,-,1623329810446,
2021-06-10 02:58:20 PM,-,1623329810450,
2021-06-10 02:58:20 PM,-,1623329810453,
2021-06-10 02:58:20 PM,-,1623329810456,
2021-06-10 02:58:20 PM,-,1623329810460,
2021-06-10 02:58:20 PM,-,1623329810463,
2021-06-10 02:58:20 PM,-,1623329810466,
2021-06-10 02:58:20 PM,-,1623329810470,
2021-06-10 02:58:20 PM,-,1623329810473,
2021-06-10 02:58:20 PM,-,1623329810476,
2021-06-10 02:58:20 PM,-,1623329810480,
2021-06-10 02:58:20 PM,-,1623329810483,
2021-06-10 02:58:20 PM,-,1623329810486,
2021-06-10 02:58:20 PM,-,1623329810490,
2021-06-10 02:58:20 PM,-,1623329810493,
2021-06-10 02:58:20 PM,-,1623329810496,
2021-06-10 02:58:20 PM,-,1623329810500,
2021-06-10 02:58:20 PM,-,1623329810503,
2021-06-10 02:58:20 PM,-,1623329810506,
2021-06-10 02:58:20 PM,-,1623329810510,
2021-06-10 02:58:20 PM,-,1623329810513,
2021-06-10 02:58:20 PM,-,1623329810516,
2021-06-10 02:58:20 PM,-,1623329810520,
2021-06-10 02:58:20 PM,-,1623329810523,
2021-06-10 02:58:20 PM,-,1623329810526,
2021-06-10 02:58:20 PM,-,1623329810530,
2021-06-10 02:58:20 PM,-,1623329810533,
2021-06-10 02:58:20 PM,-,1623329810536,
2021-06-10 02:58:20 PM,-,1623329810540,
2021-06-10 02:58:20 PM,-,1623329810543,
2021-06-10 02:58:20 PM,-,1623329810546,
2021-06-10 02:58:20 PM,-,1623329810550,
2021-06-10 02:58:20 PM,-,1623329810553,
2021-06-10 02:58:20 PM,-,1623329810556,
2021-06-10 02:58:20 PM,-,1623329810560,
2021-06-10 02:58:20 PM,-,1623329810563,
2021-06-10 02:58:20 PM,-,1623329810566,
2021-06-10 02:58:20 PM,-,1623329810570,
2021-06-10 02:58:20 PM,-,1623329810573,
2021-06-10 02:58:20 PM,-,1623329810576,
2021-06-10 02:58:20 PM,-,1623329810580,
2021-06-10 02:58:20 PM,-,1623329810583,
2021-06-10 02:58:20 PM,-,1623329810586,
2021-06-10 02:58:20 PM,-,1623329810590,
2021-06-10 02:58:20 PM,-,1623329810593,
2021-06-10 02:58:20 PM,-,1623329810596,
2021-06-10 02:58:20 PM,-,1623329810600,
2021-06-10 02:58:20 PM,-,1623329810603,
2021-06-10 02:58:20 PM,-,1623329810606,
2021-06-10 02:58:20 PM,-,1623329810610,
2021-06-10 02:58:20 PM,-,1623329810613,
2021-06-10 02:58:20 PM,-,1623329810616,
2021-06-10 02:58:20 PM,-,1623329810620,
2021-06-10 02:58:20 PM,-,1623329810623,
2021-06-10 02:58:20 PM,-,1623329810626,
2021-06-10 02:58:20 PM,-,1623329810630,
2021-06-10 02:58:20 PM,-,1623329810633,
2021-06-10 02:58:20 PM,-,1623329810636,
2021-06-10 02:58:20 PM,-,1623329810640,
2021-06-10 02:58:20 PM,-,1623329810643,
2021-06-10 02:58:20 PM,-,1623329810646,
2021-06-10 02:58:20 PM,-,1623329810650,
2021-06-10 02:58:20 PM,-,1623329810653,
2021-06-10 02:58:20 PM,-,1623329810656,
2021-06-10 02:58:20 PM,-,1623329810660,
2021-06-10 02:58:20 PM,-,1623329810663,
2021-06-10 02:58:20 PM,-,1623329810666,
2021-06-10 02:58:20 PM,-,1623329810670,
2021-06-10 02:58:20 PM,-,1623329810673,
2021-06-10 02:58:20 PM,-,1623329810676,
2021-06-10 02:58:20 PM,-,1623329810680,
2021-06-10 02:58:20 PM,-,1623329810683,
2021-06-10 02:58:20 PM,-,1623329810686,
2021-06-10 02:58:20 PM,-,1623329810690,
2021-06-10 02:58:20 PM,-,1623329810693,
2021-06-10 02:58:20 PM,-,1623329810696,
2021-06-10 02:58:20 PM,-,1623329810700,
2021-06-10 02:58:20 PM,-,1623329810703,
2021-06-10 02:58:20 PM,-,1623329810706,
2021-06-10 02:58:20 PM,-,1623329810710,
2021-06-10 02:58:20 PM,-,1623329810713,
2021-06-10 02:58:20 PM,-,1623329810716,
2021-06-10 02:58:20 PM,-,1623329810720,
2021-06-10 02:58:20 PM,-,1623329810723,
2021-06-10 02:58:20 PM,-,1623329810726,
2021-06-10 02:58:20 PM,-,1623329810730,
2021-06-10 02:58:20 PM,-,1623329810733,
2021-06-10 02:58:20 PM,-,1623329810736,
2021-06-10 02:58:20 PM,-,1623329810740,
2021-06-10 02:58:20 PM,-,1623329810743,
2021-06-10 02:58:20 PM,-,1623329810746,
2021-06-10 02:58:20 PM,-,1623329810750,
2021-06-10 02:58:20 PM,-,1623329810753,
2021-06-10 02:58:20 PM,-,1623329810756,
2021-06-10 02:58:20 PM,-,1623329810760,
2021-06-10 02:58:20 PM,-,1623329810763,
2021-06-10 02:58:20 PM,-,1623329810766,
2021-06-10 02:58:20 PM,-,1623329810770,
2021-06-10 02:58:20 PM,-,1623329810773,
2021-06-10 02:58:20 PM,-,1623329810776,
2021-06-10 02:58:20 PM,-,1623329810780,
2021-06-10 02:58:20 PM,-,1623329810783,
2021-06-10 02:58:20 PM,-,1623329810786,
2021-06-10 02:58:20 PM,-,1623329810790,
2021-06-10 02:58:20 PM,-,1623329810793,
2021-06-10 02:58:20 PM,-,1623329810796,
2021-06-10 02:58:20 PM,-,1623329810800,
2021-06-10 02:58:20 PM,-,1623329810803,
2021-06-10 02:58:20 PM,-,1623329810806,
2021-06-10 02:58:20 PM,-,1623329810810,
2021-06-10 02:58:20 PM,-,1623329810813,
2021-06-10 02:58:20 PM,-,1623329810816,
2021-06-10 02:58:20 PM,-,1623329810820,
2021-06-10 02:58:20 PM,-,1623329810823,
2021-06-10 02:58:20 PM,-,1623329810826,
2021-06-10 02:58:20 PM,-,1623329810830,
2021-06-10 02:58:20 PM,-,1623329810833,
2021-06-10 02:58:20 PM,-,1623329810836,
2021-06-10 02:58:20 PM,-,1623329810840,
2021-06-10 02:58:20 PM,-,1623329810843,
2021-06-10 02:58:20 PM,-,1623329810846,
2021-06-10 02:58:20 PM,-,1623329810850,
2021-06-10 02:58:20 PM,-,1623329810853,
2021-06-10 02:58:20 PM,-,1623329810856,
2021-06-10 02:58:20 PM,-,1623329810860,
2021-06-10 02:58:20 PM,-,1623329810863,
2021-06-10 02:58:20 PM,-,1623329810866,
2021-06-10 02:58:20 PM,-,1623329810870,
2021-06-10 02:58:20 PM,-,1623329810873,
2021-06-10 02:58:20 PM,-,1623329810876,
2021-06-10 02:58:20 PM,-,1623329810880,
2021-06-10 02:58:20 PM,-,1623329810883,
2021-06-10 02:58:20 PM,-,1623329810886,
2021-06-10 02:58:20 PM,-,1623329810890,
2021-06-10 02:58:20 PM,-,1623329810893,
2021-06-10 02:58:20 PM,-,1623329810896,
2021-06-10 02:58:20 PM,-,1623329810900,
2021-06-10 02:58:20 PM,-,1623329810903,
2021-06-10 02:58:20 PM,-,1623329810906,
2021-06-10 02:58:20 PM,-,1623329810910,
2021-06-10 02:58:20 PM,-,1623329810913,
2021-06-10 02:58:20 PM,-,1623329810916,
2021-06-10 02:58:20 PM,-,1623329810920,
2021-06-10 02:58:20 PM,-,1623329810923,
2021-06-10 02:58:20 PM,-,1623329810926,
2021-06-10 02:58:20 PM,-,1623329810930,
2021-06-10 02:58:20 PM,-,1623329810933,
2021-06-10 02:58:20 PM,-,1623329810936,
2021-06-10 02:58:20 PM,-,1623329810940,
2021-06-10 02:58:20 PM,-,1623329810943,
2021-06-10 02:58:20 PM,-,1623329810946,
2021-06-10 02:58:20 PM,-,1623329810950,
2021-06-10 02:58:20 PM,-,1623329810953,
2021-06-10 02:58:20 PM,-,1623329810956,
2021-06-10 02:58:20 PM,-,1623329810960,
2021-06-10 02:58:20 PM,-,1623329810963,
2021-06-10 02:58:20 PM,-,1623329810966,
2021-06-10 02:58:20 PM,-,1623329810970,
2021-06-10 02:58:20 PM,-,1623329810973,
2021-06-10 02:58:20 PM,-,1623329810976,
2021-06-10 02:58:20 PM,-,1623329810980,
2021-06-10 02:58:20 PM,-,1623329810983,
2021-06-10 02:58:20 PM,-,1623329810986,
2021-06-10 02:58:20 PM,-,1623329810990,
2021-06-10 02:58:20 PM,-,1623329810993,
2021-06-10 02:58:20 PM,-,1623329810996,
2021-06-10 02:58:21 PM,-,1623329811000,
2021-06-10 02:58:21 PM,-,1623329811003,
2021-06-10 02:58:21 PM,-,1623329811006,
2021-06-10 02:58:21 PM,-,1623329811010,
2021-06-10 02:58:21 PM,-,1623329811013,
2021-06-10 02:58:21 PM,-,1623329811016,
2021-06-10 02:58:21 PM,-,1623329811020,
2021-06-10 02:58:21 PM,-,1623329811023,
2021-06-10 02:58:21 PM,-,1623329811026,
2021-06-10 02:58:21 PM,-,1623329811030,
2021-06-10 02:58:21 PM,-,1623329811033,
2021-06-10 02:58:21 PM,-,1623329811036,
2021-06-10 02:58:21 PM,-,1623329811040,
2021-06-10 02:58:21 PM,-,1623329811043,
2021-06-10 02:58:21 PM,-,1623329811046,
2021-06-10 02:58:21 PM,-,1623329811050,
2021-06-10 02:58:21 PM,-,1623329811053,
2021-06-10 02:58:21 PM,-,1623329811056,
2021-06-10 02:58:21 PM,-,1623329811060,
2021-06-10 02:58:21 PM,-,1623329811063,
2021-06-10 02:58:21 PM,-,1623329811066,
2021-06-10 02:58:21 PM,-,1623329811070,
2021-06-10 02:58:21 PM,-,1623329811073,
2021-06-10 02:58:21 PM,-,1623329811076,
2021-06-10 02:58:21 PM,-,1623329811080,
2021-06-10 02:58:21 PM,-,1623329811083,
2021-06-10 02:58:21 PM,-,1623329811086,
2021-06-10 02:58:21 PM,-,1623329811090,
2021-06-10 02:58:21 PM,-,1623329811093,
2021-06-10 02:58:21 PM,-,1623329811096,
2021-06-10 02:58:21 PM,-,1623329811100,
2021-06-10 02:58:21 PM,-,1623329811103,
2021-06-10 02:58:21 PM,-,1623329811106,
2021-06-10 02:58:21 PM,-,1623329811110,
2021-06-10 02:58:21 PM,-,1623329811113,
2021-06-10 02:58:21 PM,-,1623329811116,
2021-06-10 02:58:21 PM,-,1623329811120,
2021-06-10 02:58:21 PM,-,1623329811123,
2021-06-10 02:58:21 PM,-,1623329811126,
2021-06-10 02:58:21 PM,-,1623329811130,
2021-06-10 02:58:21 PM,-,1623329811133,
2021-06-10 02:58:21 PM,-,1623329811136,
2021-06-10 02:58:21 PM,-,1623329811140,
2021-06-10 02:58:21 PM,-,1623329811143,
2021-06-10 02:58:21 PM,-,1623329811146,
2021-06-10 02:58:21 PM,-,1623329811150,
2021-06-10 02:58:21 PM,-,1623329811153,
2021-06-10 02:58:21 PM,-,1623329811156,
2021-06-10 02:58:21 PM,-,1623329811160,
2021-06-10 02:58:21 PM,-,1623329811163,
2021-06-10 02:58:21 PM,-,1623329811166,
2021-06-10 02:58:21 PM,-,1623329811170,
2021-06-10 02:58:21 PM,-,1623329811173,
2021-06-10 02:58:21 PM,-,1623329811176,
2021-06-10 02:58:21 PM,-,1623329811180,
2021-06-10 02:58:21 PM,-,1623329811183,
2021-06-10 02:58:21 PM,-,1623329811186,
2021-06-10 02:58:21 PM,-,1623329811190,
2021-06-10 02:58:21 PM,-,1623329811193,
2021-06-10 02:58:21 PM,-,1623329811196,
2021-06-10 02:58:21 PM,-,1623329811200,
2021-06-10 02:58:21 PM,-,1623329811203,
2021-06-10 02:58:21 PM,-,1623329811206,
2021-06-10 02:58:21 PM,-,1623329811210,
2021-06-10 02:58:21 PM,-,1623329811213,
2021-06-10 02:58:21 PM,-,1623329811216,
2021-06-10 02:58:21 PM,-,1623329811220,
2021-06-10 02:58:21 PM,-,1623329811223,
2021-06-10 02:58:21 PM,-,1623329811226,
2021-06-10 02:58:21 PM,-,1623329811230,
2021-06-10 02:58:21 PM,-,1623329811233,
2021-06-10 02:58:21 PM,-,1623329811236,
2021-06-10 02:58:21 PM,-,1623329811240,
2021-06-10 02:58:21 PM,-,1623329811243,
2021-06-10 02:58:21 PM,-,1623329811246,
2021-06-10 02:58:21 PM,-,1623329811250,
2021-06-10 02:58:21 PM,-,1623329811253,
2021-06-10 02:58:21 PM,-,1623329811256,
2021-06-10 02:58:21 PM,-,1623329811260,
2021-06-10 02:58:21 PM,-,1623329811263,
2021-06-10 02:58:21 PM,-,1623329811266,
2021-06-10 02:58:21 PM,-,1623329811270,
2021-06-10 02:58:21 PM,-,1623329811273,
2021-06-10 02:58:21 PM,-,1623329811276,
2021-06-10 02:58:21 PM,-,1623329811280,
2021-06-10 02:58:21 PM,-,1623329811283,
2021-06-10 02:58:21 PM,-,1623329811286,
2021-06-10 02:58:21 PM,-,1623329811290,
2021-06-10 02:58:21 PM,-,1623329811293,
2021-06-10 02:58:21 PM,-,1623329811296,
2021-06-10 02:58:21 PM,-,1623329811300,
2021-06-10 02:58:21 PM,-,1623329811303,
2021-06-10 02:58:21 PM,-,1623329811306,
2021-06-10 02:58:21 PM,-,1623329811310,
2021-06-10 02:58:21 PM,-,1623329811313,
2021-06-10 02:58:21 PM,-,1623329811316,
2021-06-10 02:58:21 PM,-,1623329811320,
2021-06-10 02:58:21 PM,-,1623329811323,
2021-06-10 02:58:21 PM,-,1623329811326,
2021-06-10 02:58:21 PM,-,1623329811330,
2021-06-10 02:58:21 PM,-,1623329811333,
2021-06-10 02:58:21 PM,-,1623329811336,
2021-06-10 02:58:21 PM,-,1623329811340,
2021-06-10 02:58:21 PM,-,1623329811343,
2021-06-10 02:58:21 PM,-,1623329811346,
2021-06-10 02:58:21 PM,-,1623329811350,
2021-06-10 02:58:21 PM,-,1623329811353,
2021-06-10 02:58:21 PM,-,1623329811356,
2021-06-10 02:58:21 PM,-,1623329811360,
2021-06-10 02:58:21 PM,-,1623329811363,
2021-06-10 02:58:21 PM,-,1623329811366,
2021-06-10 02:58:21 PM,-,1623329811370,
2021-06-10 02:58:21 PM,-,1623329811373,
2021-06-10 02:58:21 PM,-,1623329811376,
2021-06-10 02:58:21 PM,-,1623329811380,
2021-06-10 02:58:21 PM,-,1623329811383,
2021-06-10 02:58:21 PM,-,1623329811386,
2021-06-10 02:58:21 PM,-,1623329811390,
2021-06-10 02:58:21 PM,-,1623329811393,
2021-06-10 02:58:21 PM,-,1623329811396,
2021-06-10 02:58:21 PM,-,1623329811400,
2021-06-10 02:58:21 PM,-,1623329811403,
2021-06-10 02:58:21 PM,-,1623329811406,
2021-06-10 02:58:21 PM,-,1623329811410,
2021-06-10 02:58:21 PM,-,1623329811413,
2021-06-10 02:58:21 PM,-,1623329811416,
2021-06-10 02:58:21 PM,-,1623329811420,
2021-06-10 02:58:21 PM,-,1623329811423,
2021-06-10 02:58:21 PM,-,1623329811426,
2021-06-10 02:58:21 PM,-,1623329811430,
2021-06-10 02:58:21 PM,-,1623329811433,
2021-06-10 02:58:21 PM,-,1623329811436,
2021-06-10 02:58:21 PM,-,1623329811440,
2021-06-10 02:58:21 PM,-,1623329811443,
2021-06-10 02:58:21 PM,-,1623329811446,
2021-06-10 02:58:21 PM,-,1623329811450,
2021-06-10 02:58:21 PM,-,1623329811453,
2021-06-10 02:58:21 PM,-,1623329811456,
2021-06-10 02:58:21 PM,-,1623329811460,
2021-06-10 02:58:21 PM,-,1623329811463,
2021-06-10 02:58:21 PM,-,1623329811466,
2021-06-10 02:58:21 PM,-,1623329811470,
2021-06-10 02:58:21 PM,-,1623329811473,
2021-06-10 02:58:21 PM,-,1623329811476,
2021-06-10 02:58:21 PM,-,1623329811480,
2021-06-10 02:58:21 PM,-,1623329811483,
2021-06-10 02:58:21 PM,-,1623329811486,
2021-06-10 02:58:21 PM,-,1623329811490,
2021-06-10 02:58:21 PM,-,1623329811493,
2021-06-10 02:58:21 PM,-,1623329811496,
2021-06-10 02:58:21 PM,-,1623329811500,
2021-06-10 02:58:21 PM,-,1623329811503,
2021-06-10 02:58:21 PM,-,1623329811506,
2021-06-10 02:58:21 PM,-,1623329811510,
2021-06-10 02:58:21 PM,-,1623329811513,
2021-06-10 02:58:21 PM,-,1623329811516,
2021-06-10 02:58:21 PM,-,1623329811520,
2021-06-10 02:58:21 PM,-,1623329811523,
2021-06-10 02:58:21 PM,-,1623329811526,
2021-06-10 02:58:21 PM,-,1623329811530,
2021-06-10 02:58:21 PM,-,1623329811533,
2021-06-10 02:58:21 PM,-,1623329811536,
2021-06-10 02:58:21 PM,-,1623329811540,
2021-06-10 02:58:21 PM,-,1623329811543,
2021-06-10 02:58:21 PM,-,1623329811546,
2021-06-10 02:58:21 PM,-,1623329811550,
2021-06-10 02:58:21 PM,-,1623329811553,
2021-06-10 02:58:21 PM,-,1623329811556,
2021-06-10 02:58:21 PM,-,1623329811560,
2021-06-10 02:58:21 PM,-,1623329811563,
2021-06-10 02:58:21 PM,-,1623329811566,
2021-06-10 02:58:21 PM,-,1623329811570,
2021-06-10 02:58:21 PM,-,1623329811573,
2021-06-10 02:58:21 PM,-,1623329811576,
2021-06-10 02:58:21 PM,-,1623329811580,
2021-06-10 02:58:21 PM,-,1623329811583,
2021-06-10 02:58:21 PM,-,1623329811586,
2021-06-10 02:58:21 PM,-,1623329811590,
2021-06-10 02:58:21 PM,-,1623329811593,
2021-06-10 02:58:21 PM,-,1623329811596,
2021-06-10 02:58:21 PM,-,1623329811600,
2021-06-10 02:58:21 PM,-,1623329811603,
2021-06-10 02:58:21 PM,-,1623329811606,
2021-06-10 02:58:21 PM,-,1623329811610,
2021-06-10 02:58:21 PM,-,1623329811613,
2021-06-10 02:58:21 PM,-,1623329811616,
2021-06-10 02:58:21 PM,-,1623329811620,
2021-06-10 02:58:21 PM,-,1623329811623,
2021-06-10 02:58:21 PM,-,1623329811626,
2021-06-10 02:58:21 PM,-,1623329811630,
2021-06-10 02:58:21 PM,-,1623329811633,
2021-06-10 02:58:21 PM,-,1623329811636,
2021-06-10 02:58:21 PM,-,1623329811640,
2021-06-10 02:58:21 PM,-,1623329811643,
2021-06-10 02:58:21 PM,-,1623329811646,
2021-06-10 02:58:21 PM,-,1623329811650,
2021-06-10 02:58:21 PM,-,1623329811653,
2021-06-10 02:58:21 PM,-,1623329811656,
2021-06-10 02:58:21 PM,-,1623329811660,
2021-06-10 02:58:21 PM,-,1623329811663,
2021-06-10 02:58:21 PM,-,1623329811666,
2021-06-10 02:58:21 PM,-,1623329811670,
2021-06-10 02:58:21 PM,-,1623329811673,
2021-06-10 02:58:21 PM,-,1623329811676,
2021-06-10 02:58:21 PM,-,1623329811680,
2021-06-10 02:58:21 PM,-,1623329811683,
2021-06-10 02:58:21 PM,-,1623329811686,
2021-06-10 02:58:21 PM,-,1623329811690,
2021-06-10 02:58:21 PM,-,1623329811693,
2021-06-10 02:58:21 PM,-,1623329811696,
2021-06-10 02:58:21 PM,-,1623329811700,
2021-06-10 02:58:21 PM,-,1623329811703,
2021-06-10 02:58:21 PM,-,1623329811706,
2021-06-10 02:58:21 PM,-,1623329811710,
2021-06-10 02:58:21 PM,-,1623329811713,
2021-06-10 02:58:21 PM,-,1623329811716,
2021-06-10 02:58:21 PM,-,1623329811720,
2021-06-10 02:58:21 PM,-,1623329811723,
2021-06-10 02:58:21 PM,-,1623329811726,
2021-06-10 02:58:21 PM,-,1623329811730,
2021-06-10 02:58:21 PM,-,1623329811733,
2021-06-10 02:58:21 PM,-,1623329811736,
2021-06-10 02:58:21 PM,-,1623329811740,
2021-06-10 02:58:21 PM,-,1623329811743,
2021-06-10 02:58:21 PM,-,1623329811746,
2021-06-10 02:58:21 PM,-,1623329811750,
2021-06-10 02:58:21 PM,-,1623329811753,
2021-06-10 02:58:21 PM,-,1623329811756,
2021-06-10 02:58:21 PM,-,1623329811760,
2021-06-10 02:58:21 PM,-,1623329811763,
2021-06-10 02:58:21 PM,-,1623329811766,
2021-06-10 02:58:21 PM,-,1623329811770,
2021-06-10 02:58:21 PM,-,1623329811773,
2021-06-10 02:58:21 PM,-,1623329811776,
2021-06-10 02:58:21 PM,-,1623329811780,
2021-06-10 02:58:21 PM,-,1623329811783,
2021-06-10 02:58:21 PM,-,1623329811786,
2021-06-10 02:58:21 PM,-,1623329811790,
2021-06-10 02:58:21 PM,-,1623329811793,
2021-06-10 02:58:21 PM,-,1623329811796,
2021-06-10 02:58:21 PM,-,1623329811800,
2021-06-10 02:58:21 PM,-,1623329811803,
2021-06-10 02:58:21 PM,-,1623329811806,
2021-06-10 02:58:21 PM,-,1623329811810,
2021-06-10 02:58:21 PM,-,1623329811813,
2021-06-10 02:58:21 PM,-,1623329811816,
2021-06-10 02:58:21 PM,-,1623329811820,
2021-06-10 02:58:21 PM,-,1623329811823,
2021-06-10 02:58:21 PM,-,1623329811826,
2021-06-10 02:58:21 PM,-,1623329811830,
2021-06-10 02:58:21 PM,-,1623329811833,
2021-06-10 02:58:21 PM,-,1623329811836,
2021-06-10 02:58:21 PM,-,1623329811840,
2021-06-10 02:58:21 PM,-,1623329811843,
2021-06-10 02:58:21 PM,-,1623329811846,
2021-06-10 02:58:21 PM,-,1623329811850,
2021-06-10 02:58:21 PM,-,1623329811853,
2021-06-10 02:58:21 PM,-,1623329811856,
2021-06-10 02:58:21 PM,-,1623329811860,
2021-06-10 02:58:21 PM,-,1623329811863,
2021-06-10 02:58:21 PM,-,1623329811866,
2021-06-10 02:58:21 PM,-,1623329811870,
2021-06-10 02:58:21 PM,-,1623329811873,
2021-06-10 02:58:21 PM,-,1623329811876,
2021-06-10 02:58:21 PM,-,1623329811880,
2021-06-10 02:58:21 PM,-,1623329811883,
2021-06-10 02:58:21 PM,-,1623329811886,
2021-06-10 02:58:21 PM,-,1623329811890,
2021-06-10 02:58:21 PM,-,1623329811893,
2021-06-10 02:58:21 PM,-,1623329811896,
2021-06-10 02:58:21 PM,-,1623329811900,
2021-06-10 02:58:21 PM,-,1623329811903,
2021-06-10 02:58:21 PM,-,1623329811906,
2021-06-10 02:58:21 PM,-,1623329811910,
2021-06-10 02:58:21 PM,-,1623329811913,
2021-06-10 02:58:21 PM,-,1623329811916,
2021-06-10 02:58:21 PM,-,1623329811920,
2021-06-10 02:58:21 PM,-,1623329811923,
2021-06-10 02:58:21 PM,-,1623329811926,
2021-06-10 02:58:21 PM,-,1623329811930,
2021-06-10 02:58:21 PM,-,1623329811933,
2021-06-10 02:58:21 PM,-,1623329811936,
2021-06-10 02:58:21 PM,-,1623329811940,
2021-06-10 02:58:21 PM,-,1623329811943,
2021-06-10 02:58:21 PM,-,1623329811946,
2021-06-10 02:58:21 PM,-,1623329811950,
2021-06-10 02:58:21 PM,-,1623329811953,
2021-06-10 02:58:21 PM,-,1623329811956,
2021-06-10 02:58:21 PM,-,1623329811960,
2021-06-10 02:58:21 PM,-,1623329811963,
2021-06-10 02:58:21 PM,-,1623329811966,
2021-06-10 02:58:21 PM,-,1623329811970,
2021-06-10 02:58:21 PM,-,1623329811973,
2021-06-10 02:58:21 PM,-,1623329811976,
2021-06-10 02:58:21 PM,-,1623329811980,
2021-06-10 02:58:21 PM,-,1623329811983,
2021-06-10 02:58:21 PM,-,1623329811986,
2021-06-10 02:58:21 PM,-,1623329811990,
2021-06-10 02:58:21 PM,-,1623329811993,
2021-06-10 02:58:21 PM,-,1623329811996,
2021-06-10 02:58:22 PM,-,1623329812000,
2021-06-10 02:58:22 PM,-,1623329812003,
2021-06-10 02:58:22 PM,-,1623329812006,
2021-06-10 02:58:22 PM,-,1623329812010,
2021-06-10 02:58:22 PM,-,1623329812013,
2021-06-10 02:58:22 PM,-,1623329812016,
2021-06-10 02:58:22 PM,-,1623329812020,
2021-06-10 02:58:22 PM,-,1623329812023,
2021-06-10 02:58:22 PM,-,1623329812026,
2021-06-10 02:58:22 PM,-,1623329812030,
2021-06-10 02:58:22 PM,-,1623329812033,
2021-06-10 02:58:22 PM,-,1623329812036,
2021-06-10 02:58:22 PM,-,1623329812040,
2021-06-10 02:58:22 PM,-,1623329812043,
2021-06-10 02:58:22 PM,-,1623329812046,
2021-06-10 02:58:22 PM,-,1623329812050,
2021-06-10 02:58:22 PM,-,1623329812053,
2021-06-10 02:58:22 PM,-,1623329812056,
2021-06-10 02:58:22 PM,-,1623329812060,
2021-06-10 02:58:22 PM,-,1623329812063,
2021-06-10 02:58:22 PM,-,1623329812066,
2021-06-10 02:58:22 PM,-,1623329812070,
2021-06-10 02:58:22 PM,-,1623329812073,
2021-06-10 02:58:22 PM,-,1623329812076,
2021-06-10 02:58:22 PM,-,1623329812080,
2021-06-10 02:58:22 PM,-,1623329812083,
2021-06-10 02:58:22 PM,-,1623329812086,
2021-06-10 02:58:22 PM,-,1623329812090,
2021-06-10 02:58:22 PM,-,1623329812093,
2021-06-10 02:58:22 PM,-,1623329812096,
2021-06-10 02:58:22 PM,-,1623329812100,
2021-06-10 02:58:22 PM,-,1623329812103,
2021-06-10 02:58:22 PM,-,1623329812106,
2021-06-10 02:58:22 PM,-,1623329812110,
2021-06-10 02:58:22 PM,-,1623329812113,
2021-06-10 02:58:22 PM,-,1623329812116,
2021-06-10 02:58:22 PM,-,1623329812120,
2021-06-10 02:58:22 PM,-,1623329812123,
2021-06-10 02:58:22 PM,-,1623329812126,
2021-06-10 02:58:22 PM,-,1623329812130,
2021-06-10 02:58:22 PM,-,1623329812133,
2021-06-10 02:58:22 PM,-,1623329812136,
2021-06-10 02:58:22 PM,-,1623329812140,
2021-06-10 02:58:22 PM,-,1623329812143,
2021-06-10 02:58:22 PM,-,1623329812146,
2021-06-10 02:58:22 PM,-,1623329812150,
2021-06-10 02:58:22 PM,-,1623329812153,
2021-06-10 02:58:22 PM,-,1623329812156,
2021-06-10 02:58:22 PM,-,1623329812160,
2021-06-10 02:58:22 PM,-,1623329812163,
2021-06-10 02:58:22 PM,-,1623329812166,
2021-06-10 02:58:22 PM,-,1623329812170,
2021-06-10 02:58:22 PM,-,1623329812173,
2021-06-10 02:58:22 PM,-,1623329812176,
2021-06-10 02:58:22 PM,-,1623329812180,
2021-06-10 02:58:22 PM,-,1623329812183,
2021-06-10 02:58:22 PM,-,1623329812186,
2021-06-10 02:58:22 PM,-,1623329812190,
2021-06-10 02:58:22 PM,-,1623329812193,
2021-06-10 02:58:22 PM,-,1623329812196,
2021-06-10 02:58:22 PM,-,1623329812200,
2021-06-10 02:58:22 PM,-,1623329812203,
2021-06-10 02:58:22 PM,-,1623329812206,
2021-06-10 02:58:22 PM,-,1623329812210,
2021-06-10 02:58:22 PM,-,1623329812213,
2021-06-10 02:58:22 PM,-,1623329812216,
2021-06-10 02:58:22 PM,-,1623329812220,
2021-06-10 02:58:22 PM,-,1623329812223,
2021-06-10 02:58:22 PM,-,1623329812226,
2021-06-10 02:58:22 PM,-,1623329812230,
2021-06-10 02:58:22 PM,-,1623329812233,
2021-06-10 02:58:22 PM,-,1623329812236,
2021-06-10 02:58:22 PM,-,1623329812240,
2021-06-10 02:58:22 PM,-,1623329812243,
2021-06-10 02:58:22 PM,-,1623329812246,
2021-06-10 02:58:22 PM,-,1623329812250,
2021-06-10 02:58:22 PM,-,1623329812253,
2021-06-10 02:58:22 PM,-,1623329812256,
2021-06-10 02:58:22 PM,-,1623329812260,
2021-06-10 02:58:22 PM,-,1623329812263,
2021-06-10 02:58:22 PM,-,1623329812266,
2021-06-10 02:58:22 PM,-,1623329812270,
2021-06-10 02:58:22 PM,-,1623329812273,
2021-06-10 02:58:22 PM,-,1623329812276,
2021-06-10 02:58:22 PM,-,1623329812280,
2021-06-10 02:58:22 PM,-,1623329812283,
2021-06-10 02:58:22 PM,-,1623329812286,
2021-06-10 02:58:22 PM,-,1623329812290,
2021-06-10 02:58:22 PM,-,1623329812293,
2021-06-10 02:58:22 PM,-,1623329812296,
2021-06-10 02:58:22 PM,-,1623329812300,
2021-06-10 02:58:22 PM,-,1623329812303,
2021-06-10 02:58:22 PM,-,1623329812306,
2021-06-10 02:58:22 PM,-,1623329812310,
2021-06-10 02:58:22 PM,-,1623329812313,
2021-06-10 02:58:22 PM,-,1623329812316,
2021-06-10 02:58:22 PM,-,1623329812320,
2021-06-10 02:58:22 PM,-,1623329812323,
2021-06-10 02:58:22 PM,-,1623329812326,
2021-06-10 02:58:22 PM,-,1623329812330,
2021-06-10 02:58:22 PM,-,1623329812333,
2021-06-10 02:58:22 PM,-,1623329812336,
2021-06-10 02:58:22 PM,-,1623329812340,
2021-06-10 02:58:22 PM,-,1623329812343,
2021-06-10 02:58:22 PM,-,1623329812346,
2021-06-10 02:58:22 PM,-,1623329812350,
2021-06-10 02:58:22 PM,-,1623329812353,
2021-06-10 02:58:22 PM,-,1623329812356,
2021-06-10 02:58:22 PM,-,1623329812360,
2021-06-10 02:58:22 PM,-,1623329812363,
2021-06-10 02:58:22 PM,-,1623329812366,
2021-06-10 02:58:22 PM,-,1623329812370,
2021-06-10 02:58:22 PM,-,1623329812373,
2021-06-10 02:58:22 PM,-,1623329812376,
2021-06-10 02:58:22 PM,-,1623329812380,
2021-06-10 02:58:22 PM,-,1623329812383,
2021-06-10 02:58:22 PM,-,1623329812386,
2021-06-10 02:58:22 PM,-,1623329812390,
2021-06-10 02:58:22 PM,-,1623329812393,
2021-06-10 02:58:22 PM,-,1623329812396,
2021-06-10 02:58:22 PM,-,1623329812400,
2021-06-10 02:58:22 PM,-,1623329812403,
2021-06-10 02:58:22 PM,-,1623329812406,
2021-06-10 02:58:22 PM,-,1623329812410,
2021-06-10 02:58:22 PM,-,1623329812413,
2021-06-10 02:58:22 PM,-,1623329812416,
2021-06-10 02:58:22 PM,-,1623329812420,
2021-06-10 02:58:22 PM,-,1623329812423,
2021-06-10 02:58:22 PM,-,1623329812426,
2021-06-10 02:58:22 PM,-,1623329812430,
2021-06-10 02:58:22 PM,-,1623329812433,
2021-06-10 02:58:22 PM,-,1623329812436,
2021-06-10 02:58:22 PM,-,1623329812440,
2021-06-10 02:58:22 PM,-,1623329812443,
2021-06-10 02:58:22 PM,-,1623329812446,
2021-06-10 02:58:22 PM,-,1623329812450,
2021-06-10 02:58:22 PM,-,1623329812453,
2021-06-10 02:58:22 PM,-,1623329812456,
2021-06-10 02:58:22 PM,-,1623329812460,
2021-06-10 02:58:22 PM,-,1623329812463,
2021-06-10 02:58:22 PM,-,1623329812466,
2021-06-10 02:58:22 PM,-,1623329812470,
2021-06-10 02:58:22 PM,-,1623329812473,
2021-06-10 02:58:22 PM,-,1623329812476,
2021-06-10 02:58:22 PM,-,1623329812480,
2021-06-10 02:58:22 PM,-,1623329812483,
2021-06-10 02:58:22 PM,-,1623329812486,
2021-06-10 02:58:22 PM,-,1623329812490,
2021-06-10 02:58:22 PM,-,1623329812493,
2021-06-10 02:58:22 PM,-,1623329812496,
2021-06-10 02:58:22 PM,-,1623329812500,
2021-06-10 02:58:22 PM,-,1623329812503,
2021-06-10 02:58:22 PM,-,1623329812506,
2021-06-10 02:58:22 PM,-,1623329812510,
2021-06-10 02:58:22 PM,-,1623329812513,
2021-06-10 02:58:22 PM,-,1623329812516,
2021-06-10 02:58:22 PM,-,1623329812520,
2021-06-10 02:58:22 PM,-,1623329812523,
2021-06-10 02:58:22 PM,-,1623329812526,
2021-06-10 02:58:22 PM,-,1623329812530,
2021-06-10 02:58:22 PM,-,1623329812533,
2021-06-10 02:58:22 PM,-,1623329812536,
2021-06-10 02:58:22 PM,-,1623329812540,
2021-06-10 02:58:22 PM,-,1623329812543,
2021-06-10 02:58:22 PM,-,1623329812546,
2021-06-10 02:58:22 PM,-,1623329812550,
2021-06-10 02:58:22 PM,-,1623329812553,
2021-06-10 02:58:22 PM,-,1623329812556,
2021-06-10 02:58:22 PM,-,1623329812560,
2021-06-10 02:58:22 PM,-,1623329812563,
2021-06-10 02:58:22 PM,-,1623329812566,
2021-06-10 02:58:22 PM,-,1623329812570,
2021-06-10 02:58:22 PM,-,1623329812573,
2021-06-10 02:58:22 PM,-,1623329812576,
2021-06-10 02:58:22 PM,-,1623329812580,
2021-06-10 02:58:22 PM,-,1623329812583,
2021-06-10 02:58:22 PM,-,1623329812586,
2021-06-10 02:58:22 PM,-,1623329812590,
2021-06-10 02:58:22 PM,-,1623329812593,
2021-06-10 02:58:22 PM,-,1623329812596,
2021-06-10 02:58:22 PM,-,1623329812600,
2021-06-10 02:58:22 PM,-,1623329812603,
2021-06-10 02:58:22 PM,-,1623329812606,
2021-06-10 02:58:22 PM,-,1623329812610,
2021-06-10 02:58:22 PM,-,1623329812613,
2021-06-10 02:58:22 PM,-,1623329812616,
2021-06-10 02:58:22 PM,-,1623329812620,
2021-06-10 02:58:22 PM,-,1623329812623,
2021-06-10 02:58:22 PM,-,1623329812626,
2021-06-10 02:58:22 PM,-,1623329812630,
2021-06-10 02:58:22 PM,-,1623329812633,
2021-06-10 02:58:22 PM,-,1623329812636,
2021-06-10 02:58:22 PM,-,1623329812640,
2021-06-10 02:58:22 PM,-,1623329812643,
2021-06-10 02:58:22 PM,-,1623329812646,
2021-06-10 02:58:22 PM,-,1623329812650,
2021-06-10 02:58:22 PM,-,1623329812653,
2021-06-10 02:58:22 PM,-,1623329812656,
2021-06-10 02:58:22 PM,-,1623329812660,
2021-06-10 02:58:22 PM,-,1623329812663,
2021-06-10 02:58:22 PM,-,1623329812666,
2021-06-10 02:58:22 PM,-,1623329812670,
2021-06-10 02:58:22 PM,-,1623329812673,
2021-06-10 02:58:22 PM,-,1623329812676,
2021-06-10 02:58:22 PM,-,1623329812680,
2021-06-10 02:58:22 PM,-,1623329812683,
2021-06-10 02:58:22 PM,-,1623329812686,
2021-06-10 02:58:22 PM,-,1623329812690,
2021-06-10 02:58:22 PM,-,1623329812693,
2021-06-10 02:58:22 PM,-,1623329812696,
2021-06-10 02:58:22 PM,-,1623329812700,
2021-06-10 02:58:22 PM,-,1623329812703,
2021-06-10 02:58:22 PM,-,1623329812706,
2021-06-10 02:58:22 PM,-,1623329812710,
2021-06-10 02:58:22 PM,-,1623329812713,
2021-06-10 02:58:22 PM,-,1623329812716,
2021-06-10 02:58:22 PM,-,1623329812720,
2021-06-10 02:58:22 PM,-,1623329812723,
2021-06-10 02:58:22 PM,-,1623329812726,
2021-06-10 02:58:22 PM,-,1623329812730,
2021-06-10 02:58:22 PM,-,1623329812733,
2021-06-10 02:58:22 PM,-,1623329812736,
2021-06-10 02:58:22 PM,-,1623329812740,
2021-06-10 02:58:22 PM,-,1623329812743,
2021-06-10 02:58:22 PM,-,1623329812746,
2021-06-10 02:58:22 PM,-,1623329812750,
2021-06-10 02:58:22 PM,-,1623329812753,
2021-06-10 02:58:22 PM,-,1623329812756,
2021-06-10 02:58:22 PM,-,1623329812760,
2021-06-10 02:58:22 PM,-,1623329812763,
2021-06-10 02:58:22 PM,-,1623329812766,
2021-06-10 02:58:22 PM,-,1623329812770,
2021-06-10 02:58:22 PM,-,1623329812773,
2021-06-10 02:58:22 PM,-,1623329812776,
2021-06-10 02:58:22 PM,-,1623329812780,
2021-06-10 02:58:22 PM,-,1623329812783,
2021-06-10 02:58:22 PM,-,1623329812786,
2021-06-10 02:58:22 PM,-,1623329812790,
2021-06-10 02:58:22 PM,-,1623329812793,
2021-06-10 02:58:22 PM,-,1623329812796,
2021-06-10 02:58:22 PM,-,1623329812800,
2021-06-10 02:58:22 PM,-,1623329812803,
2021-06-10 02:58:22 PM,-,1623329812806,
2021-06-10 02:58:22 PM,-,1623329812810,
2021-06-10 02:58:22 PM,-,1623329812813,
2021-06-10 02:58:22 PM,-,1623329812816,
2021-06-10 02:58:22 PM,-,1623329812820,
2021-06-10 02:58:22 PM,-,1623329812823,
2021-06-10 02:58:22 PM,-,1623329812826,
2021-06-10 02:58:22 PM,-,1623329812830,
2021-06-10 02:58:22 PM,-,1623329812833,
2021-06-10 02:58:22 PM,-,1623329812836,
2021-06-10 02:58:22 PM,-,1623329812840,
2021-06-10 02:58:22 PM,-,1623329812843,
2021-06-10 02:58:22 PM,-,1623329812846,
2021-06-10 02:58:22 PM,-,1623329812850,
2021-06-10 02:58:22 PM,-,1623329812853,
2021-06-10 02:58:22 PM,-,1623329812856,
2021-06-10 02:58:22 PM,-,1623329812860,
2021-06-10 02:58:22 PM,-,1623329812863,
2021-06-10 02:58:22 PM,-,1623329812866,
2021-06-10 02:58:22 PM,-,1623329812870,
2021-06-10 02:58:22 PM,-,1623329812873,
2021-06-10 02:58:22 PM,-,1623329812876,
2021-06-10 02:58:22 PM,-,1623329812880,
2021-06-10 02:58:22 PM,-,1623329812883,
2021-06-10 02:58:22 PM,-,1623329812886,
2021-06-10 02:58:22 PM,-,1623329812890,
2021-06-10 02:58:22 PM,-,1623329812893,
2021-06-10 02:58:22 PM,-,1623329812896,
2021-06-10 02:58:22 PM,-,1623329812900,
2021-06-10 02:58:22 PM,-,1623329812903,
2021-06-10 02:58:22 PM,-,1623329812906,
2021-06-10 02:58:22 PM,-,1623329812910,
2021-06-10 02:58:22 PM,-,1623329812913,
2021-06-10 02:58:22 PM,-,1623329812916,
2021-06-10 02:58:22 PM,-,1623329812920,
2021-06-10 02:58:22 PM,-,1623329812923,
2021-06-10 02:58:22 PM,-,1623329812926,
2021-06-10 02:58:22 PM,-,1623329812930,
2021-06-10 02:58:22 PM,-,1623329812933,
2021-06-10 02:58:22 PM,-,1623329812936,
2021-06-10 02:58:22 PM,-,1623329812940,
2021-06-10 02:58:22 PM,-,1623329812943,
2021-06-10 02:58:22 PM,-,1623329812946,
2021-06-10 02:58:22 PM,-,1623329812950,
2021-06-10 02:58:22 PM,-,1623329812953,
2021-06-10 02:58:22 PM,-,1623329812956,
2021-06-10 02:58:22 PM,-,1623329812960,
2021-06-10 02:58:22 PM,-,1623329812963,
2021-06-10 02:58:22 PM,-,1623329812966,
2021-06-10 02:58:22 PM,-,1623329812970,
2021-06-10 02:58:22 PM,-,1623329812973,
2021-06-10 02:58:22 PM,-,1623329812976,
2021-06-10 02:58:22 PM,-,1623329812980,
2021-06-10 02:58:22 PM,-,1623329812983,
2021-06-10 02:58:22 PM,-,1623329812986,
2021-06-10 02:58:22 PM,-,1623329812990,
2021-06-10 02:58:22 PM,-,1623329812993,
2021-06-10 02:58:22 PM,-,1623329812996,
2021-06-10 02:58:23 PM,-,1623329813000,
2021-06-10 02:58:23 PM,-,1623329813003,
2021-06-10 02:58:23 PM,-,1623329813006,
2021-06-10 02:58:23 PM,-,1623329813010,
2021-06-10 02:58:23 PM,-,1623329813013,
2021-06-10 02:58:23 PM,-,1623329813016,
2021-06-10 02:58:23 PM,-,1623329813020,
2021-06-10 02:58:23 PM,-,1623329813023,
2021-06-10 02:58:23 PM,-,1623329813026,
2021-06-10 02:58:23 PM,-,1623329813030,
2021-06-10 02:58:23 PM,-,1623329813033,
2021-06-10 02:58:23 PM,-,1623329813036,
2021-06-10 02:58:23 PM,-,1623329813040,
2021-06-10 02:58:23 PM,-,1623329813043,
2021-06-10 02:58:23 PM,-,1623329813046,
2021-06-10 02:58:23 PM,-,1623329813050,
2021-06-10 02:58:23 PM,-,1623329813053,
2021-06-10 02:58:23 PM,-,1623329813056,
2021-06-10 02:58:23 PM,-,1623329813060,
2021-06-10 02:58:23 PM,-,1623329813063,
2021-06-10 02:58:23 PM,-,1623329813066,
2021-06-10 02:58:23 PM,-,1623329813070,
2021-06-10 02:58:23 PM,-,1623329813073,
2021-06-10 02:58:23 PM,-,1623329813076,
2021-06-10 02:58:23 PM,-,1623329813080,
2021-06-10 02:58:23 PM,-,1623329813083,
2021-06-10 02:58:23 PM,-,1623329813086,
2021-06-10 02:58:23 PM,-,1623329813090,
2021-06-10 02:58:23 PM,-,1623329813093,
2021-06-10 02:58:23 PM,-,1623329813096,
2021-06-10 02:58:23 PM,-,1623329813100,
2021-06-10 02:58:23 PM,-,1623329813103,
2021-06-10 02:58:23 PM,-,1623329813106,
2021-06-10 02:58:23 PM,-,1623329813110,
2021-06-10 02:58:23 PM,-,1623329813113,
2021-06-10 02:58:23 PM,-,1623329813116,
2021-06-10 02:58:23 PM,-,1623329813120,
2021-06-10 02:58:23 PM,-,1623329813123,
2021-06-10 02:58:23 PM,-,1623329813126,
2021-06-10 02:58:23 PM,-,1623329813130,
2021-06-10 02:58:23 PM,-,1623329813133,
2021-06-10 02:58:23 PM,-,1623329813136,
2021-06-10 02:58:23 PM,-,1623329813140,
2021-06-10 02:58:23 PM,-,1623329813143,
2021-06-10 02:58:23 PM,-,1623329813146,
2021-06-10 02:58:23 PM,-,1623329813150,
2021-06-10 02:58:23 PM,-,1623329813153,
2021-06-10 02:58:23 PM,-,1623329813156,
2021-06-10 02:58:23 PM,-,1623329813160,
2021-06-10 02:58:23 PM,-,1623329813163,
2021-06-10 02:58:23 PM,-,1623329813166,
2021-06-10 02:58:23 PM,-,1623329813170,
2021-06-10 02:58:23 PM,-,1623329813173,
2021-06-10 02:58:23 PM,-,1623329813176,
2021-06-10 02:58:23 PM,-,1623329813180,
2021-06-10 02:58:23 PM,-,1623329813183,
2021-06-10 02:58:23 PM,-,1623329813186,
2021-06-10 02:58:23 PM,-,1623329813190,
2021-06-10 02:58:23 PM,-,1623329813193,
2021-06-10 02:58:23 PM,-,1623329813196,
2021-06-10 02:58:23 PM,-,1623329813200,
2021-06-10 02:58:23 PM,-,1623329813203,
2021-06-10 02:58:23 PM,-,1623329813206,
2021-06-10 02:58:23 PM,-,1623329813210,
2021-06-10 02:58:23 PM,-,1623329813213,
2021-06-10 02:58:23 PM,-,1623329813216,
2021-06-10 02:58:23 PM,-,1623329813220,
2021-06-10 02:58:23 PM,-,1623329813223,
2021-06-10 02:58:23 PM,-,1623329813226,
2021-06-10 02:58:23 PM,-,1623329813230,
2021-06-10 02:58:23 PM,-,1623329813233,
2021-06-10 02:58:23 PM,-,1623329813236,
2021-06-10 02:58:23 PM,-,1623329813240,
2021-06-10 02:58:23 PM,-,1623329813243,
2021-06-10 02:58:23 PM,-,1623329813246,
2021-06-10 02:58:23 PM,-,1623329813250,
2021-06-10 02:58:23 PM,-,1623329813253,
2021-06-10 02:58:23 PM,-,1623329813256,
2021-06-10 02:58:23 PM,-,1623329813260,
2021-06-10 02:58:23 PM,-,1623329813263,
2021-06-10 02:58:23 PM,-,1623329813266,
2021-06-10 02:58:23 PM,-,1623329813270,
2021-06-10 02:58:23 PM,-,1623329813273,
2021-06-10 02:58:23 PM,-,1623329813276,
2021-06-10 02:58:23 PM,-,1623329813280,
2021-06-10 02:58:23 PM,-,1623329813283,
2021-06-10 02:58:23 PM,-,1623329813286,
2021-06-10 02:58:23 PM,-,1623329813290,
2021-06-10 02:58:23 PM,-,1623329813293,
2021-06-10 02:58:23 PM,-,1623329813296,
2021-06-10 02:58:23 PM,-,1623329813300,
2021-06-10 02:58:23 PM,-,1623329813303,
2021-06-10 02:58:23 PM,-,1623329813306,
2021-06-10 02:58:23 PM,-,1623329813310,
2021-06-10 02:58:23 PM,-,1623329813313,
2021-06-10 02:58:23 PM,-,1623329813316,
2021-06-10 02:58:23 PM,-,1623329813320,
2021-06-10 02:58:23 PM,-,1623329813323,
2021-06-10 02:58:23 PM,-,1623329813326,
2021-06-10 02:58:23 PM,-,1623329813330,
2021-06-10 02:58:23 PM,-,1623329813333,
2021-06-10 02:58:23 PM,-,1623329813336,
2021-06-10 02:58:23 PM,-,1623329813340,
2021-06-10 02:58:23 PM,-,1623329813343,
2021-06-10 02:58:23 PM,-,1623329813346,
2021-06-10 02:58:23 PM,-,1623329813350,
2021-06-10 02:58:23 PM,-,1623329813353,
2021-06-10 02:58:23 PM,-,1623329813356,
2021-06-10 02:58:23 PM,-,1623329813360,
2021-06-10 02:58:23 PM,-,1623329813363,
2021-06-10 02:58:23 PM,-,1623329813366,
2021-06-10 02:58:23 PM,-,1623329813370,
2021-06-10 02:58:23 PM,-,1623329813373,
2021-06-10 02:58:23 PM,-,1623329813376,
2021-06-10 02:58:23 PM,-,1623329813380,
2021-06-10 02:58:23 PM,-,1623329813383,
2021-06-10 02:58:23 PM,-,1623329813386,
2021-06-10 02:58:23 PM,-,1623329813390,
2021-06-10 02:58:23 PM,-,1623329813393,
2021-06-10 02:58:23 PM,-,1623329813396,
2021-06-10 02:58:23 PM,-,1623329813400,
2021-06-10 02:58:23 PM,-,1623329813403,
2021-06-10 02:58:23 PM,-,1623329813406,
2021-06-10 02:58:23 PM,-,1623329813410,
2021-06-10 02:58:23 PM,-,1623329813413,
2021-06-10 02:58:23 PM,-,1623329813416,
2021-06-10 02:58:23 PM,-,1623329813420,
2021-06-10 02:58:23 PM,-,1623329813423,
2021-06-10 02:58:23 PM,-,1623329813426,
2021-06-10 02:58:23 PM,-,1623329813430,
2021-06-10 02:58:23 PM,-,1623329813433,
2021-06-10 02:58:23 PM,-,1623329813436,
2021-06-10 02:58:23 PM,-,1623329813440,
2021-06-10 02:58:23 PM,-,1623329813443,
2021-06-10 02:58:23 PM,-,1623329813446,
2021-06-10 02:58:23 PM,-,1623329813450,
2021-06-10 02:58:23 PM,-,1623329813453,
2021-06-10 02:58:23 PM,-,1623329813456,
2021-06-10 02:58:23 PM,-,1623329813460,
2021-06-10 02:58:23 PM,-,1623329813463,
2021-06-10 02:58:23 PM,-,1623329813466,
2021-06-10 02:58:23 PM,-,1623329813470,
2021-06-10 02:58:23 PM,-,1623329813473,
2021-06-10 02:58:23 PM,-,1623329813476,
2021-06-10 02:58:23 PM,-,1623329813480,
2021-06-10 02:58:23 PM,-,1623329813483,
2021-06-10 02:58:23 PM,-,1623329813486,
2021-06-10 02:58:23 PM,-,1623329813490,
2021-06-10 02:58:23 PM,-,1623329813493,
2021-06-10 02:58:23 PM,-,1623329813496,
2021-06-10 02:58:23 PM,-,1623329813500,
2021-06-10 02:58:23 PM,-,1623329813503,
2021-06-10 02:58:23 PM,-,1623329813506,
2021-06-10 02:58:23 PM,-,1623329813510,
2021-06-10 02:58:23 PM,-,1623329813513,
2021-06-10 02:58:23 PM,-,1623329813516,
2021-06-10 02:58:23 PM,-,1623329813520,
2021-06-10 02:58:23 PM,-,1623329813523,
2021-06-10 02:58:23 PM,-,1623329813526,
2021-06-10 02:58:23 PM,-,1623329813530,
2021-06-10 02:58:23 PM,-,1623329813533,
2021-06-10 02:58:23 PM,-,1623329813536,
2021-06-10 02:58:23 PM,-,1623329813540,
2021-06-10 02:58:23 PM,-,1623329813543,
2021-06-10 02:58:23 PM,-,1623329813546,
2021-06-10 02:58:23 PM,-,1623329813550,
2021-06-10 02:58:23 PM,-,1623329813553,
2021-06-10 02:58:23 PM,-,1623329813556,
2021-06-10 02:58:23 PM,-,1623329813560,
2021-06-10 02:58:23 PM,-,1623329813563,
2021-06-10 02:58:23 PM,-,1623329813566,
2021-06-10 02:58:23 PM,-,1623329813570,
2021-06-10 02:58:23 PM,-,1623329813573,
2021-06-10 02:58:23 PM,-,1623329813576,
2021-06-10 02:58:23 PM,-,1623329813580,
2021-06-10 02:58:23 PM,-,1623329813583,
2021-06-10 02:58:23 PM,-,1623329813586,
2021-06-10 02:58:23 PM,-,1623329813590,
2021-06-10 02:58:23 PM,-,1623329813593,
2021-06-10 02:58:23 PM,-,1623329813596,
2021-06-10 02:58:23 PM,-,1623329813600,
2021-06-10 02:58:23 PM,-,1623329813603,
2021-06-10 02:58:23 PM,-,1623329813606,
2021-06-10 02:58:23 PM,-,1623329813610,
2021-06-10 02:58:23 PM,-,1623329813613,
2021-06-10 02:58:23 PM,-,1623329813616,
2021-06-10 02:58:23 PM,-,1623329813620,
2021-06-10 02:58:23 PM,-,1623329813623,
2021-06-10 02:58:23 PM,-,1623329813626,
2021-06-10 02:58:23 PM,-,1623329813630,
2021-06-10 02:58:23 PM,-,1623329813633,
2021-06-10 02:58:23 PM,-,1623329813636,
2021-06-10 02:58:23 PM,-,1623329813640,
2021-06-10 02:58:23 PM,-,1623329813643,
2021-06-10 02:58:23 PM,-,1623329813646,
2021-06-10 02:58:23 PM,-,1623329813650,
2021-06-10 02:58:23 PM,-,1623329813653,
2021-06-10 02:58:23 PM,-,1623329813656,
2021-06-10 02:58:23 PM,-,1623329813660,
2021-06-10 02:58:23 PM,-,1623329813663,
2021-06-10 02:58:23 PM,-,1623329813666,
2021-06-10 02:58:23 PM,-,1623329813670,
2021-06-10 02:58:23 PM,-,1623329813673,
2021-06-10 02:58:23 PM,-,1623329813676,
2021-06-10 02:58:23 PM,-,1623329813680,
2021-06-10 02:58:23 PM,-,1623329813683,
2021-06-10 02:58:23 PM,-,1623329813686,
2021-06-10 02:58:23 PM,-,1623329813690,
2021-06-10 02:58:23 PM,-,1623329813693,
2021-06-10 02:58:23 PM,-,1623329813696,
2021-06-10 02:58:23 PM,-,1623329813700,
2021-06-10 02:58:23 PM,-,1623329813703,
2021-06-10 02:58:23 PM,-,1623329813706,
2021-06-10 02:58:23 PM,-,1623329813710,
2021-06-10 02:58:23 PM,-,1623329813713,
2021-06-10 02:58:23 PM,-,1623329813716,
2021-06-10 02:58:23 PM,-,1623329813720,
2021-06-10 02:58:23 PM,-,1623329813723,
2021-06-10 02:58:23 PM,-,1623329813726,
2021-06-10 02:58:23 PM,-,1623329813730,
2021-06-10 02:58:23 PM,-,1623329813733,
2021-06-10 02:58:23 PM,-,1623329813736,
2021-06-10 02:58:23 PM,-,1623329813740,
2021-06-10 02:58:23 PM,-,1623329813743,
2021-06-10 02:58:23 PM,-,1623329813746,
2021-06-10 02:58:23 PM,-,1623329813750,
2021-06-10 02:58:23 PM,-,1623329813753,
2021-06-10 02:58:23 PM,-,1623329813756,
2021-06-10 02:58:23 PM,-,1623329813760,
2021-06-10 02:58:23 PM,-,1623329813763,
2021-06-10 02:58:23 PM,-,1623329813766,
2021-06-10 02:58:23 PM,-,1623329813770,
2021-06-10 02:58:23 PM,-,1623329813773,
2021-06-10 02:58:23 PM,-,1623329813776,
2021-06-10 02:58:23 PM,-,1623329813780,
2021-06-10 02:58:23 PM,-,1623329813783,
2021-06-10 02:58:23 PM,-,1623329813786,
2021-06-10 02:58:23 PM,-,1623329813790,
2021-06-10 02:58:23 PM,-,1623329813793,
2021-06-10 02:58:23 PM,-,1623329813796,
2021-06-10 02:58:23 PM,-,1623329813800,
2021-06-10 02:58:23 PM,-,1623329813803,
2021-06-10 02:58:23 PM,-,1623329813806,
2021-06-10 02:58:23 PM,-,1623329813810,
2021-06-10 02:58:23 PM,-,1623329813813,
2021-06-10 02:58:23 PM,-,1623329813816,
2021-06-10 02:58:23 PM,-,1623329813820,
2021-06-10 02:58:23 PM,-,1623329813823,
2021-06-10 02:58:23 PM,-,1623329813826,
2021-06-10 02:58:23 PM,-,1623329813830,
2021-06-10 02:58:23 PM,-,1623329813833,
2021-06-10 02:58:23 PM,-,1623329813836,
2021-06-10 02:58:23 PM,-,1623329813840,
2021-06-10 02:58:23 PM,-,1623329813843,
2021-06-10 02:58:23 PM,-,1623329813846,
2021-06-10 02:58:23 PM,-,1623329813850,
2021-06-10 02:58:23 PM,-,1623329813853,
2021-06-10 02:58:23 PM,-,1623329813856,
2021-06-10 02:58:23 PM,-,1623329813860,
2021-06-10 02:58:23 PM,-,1623329813863,
2021-06-10 02:58:23 PM,-,1623329813866,
2021-06-10 02:58:23 PM,-,1623329813870,
2021-06-10 02:58:23 PM,-,1623329813873,
2021-06-10 02:58:23 PM,-,1623329813876,
2021-06-10 02:58:23 PM,-,1623329813880,
2021-06-10 02:58:23 PM,-,1623329813883,
2021-06-10 02:58:23 PM,-,1623329813886,
2021-06-10 02:58:23 PM,-,1623329813890,
2021-06-10 02:58:23 PM,-,1623329813893,
2021-06-10 02:58:23 PM,-,1623329813896,
2021-06-10 02:58:23 PM,-,1623329813900,
2021-06-10 02:58:23 PM,-,1623329813903,
2021-06-10 02:58:23 PM,-,1623329813906,
2021-06-10 02:58:23 PM,-,1623329813910,
2021-06-10 02:58:23 PM,-,1623329813913,
2021-06-10 02:58:23 PM,-,1623329813916,
2021-06-10 02:58:23 PM,-,1623329813920,
2021-06-10 02:58:23 PM,-,1623329813923,
2021-06-10 02:58:23 PM,-,1623329813926,
2021-06-10 02:58:23 PM,-,1623329813930,
2021-06-10 02:58:23 PM,-,1623329813933,
2021-06-10 02:58:23 PM,-,1623329813936,
2021-06-10 02:58:23 PM,-,1623329813940,
2021-06-10 02:58:23 PM,-,1623329813943,
2021-06-10 02:58:23 PM,-,1623329813946,
2021-06-10 02:58:23 PM,-,1623329813950,
2021-06-10 02:58:23 PM,-,1623329813953,
2021-06-10 02:58:23 PM,-,1623329813956,
2021-06-10 02:58:23 PM,-,1623329813960,
2021-06-10 02:58:23 PM,-,1623329813963,
2021-06-10 02:58:23 PM,-,1623329813966,
2021-06-10 02:58:23 PM,-,1623329813970,
2021-06-10 02:58:23 PM,-,1623329813973,
2021-06-10 02:58:23 PM,-,1623329813976,
2021-06-10 02:58:23 PM,-,1623329813980,
2021-06-10 02:58:23 PM,-,1623329813983,
2021-06-10 02:58:23 PM,-,1623329813986,
2021-06-10 02:58:23 PM,-,1623329813990,
2021-06-10 02:58:23 PM,-,1623329813993,
2021-06-10 02:58:23 PM,-,1623329813996,
2021-06-10 02:58:24 PM,-,1623329814000,
2021-06-10 02:58:24 PM,-,1623329814003,
2021-06-10 02:58:24 PM,-,1623329814006,
2021-06-10 02:58:24 PM,-,1623329814010,
2021-06-10 02:58:24 PM,-,1623329814013,
2021-06-10 02:58:24 PM,-,1623329814016,
2021-06-10 02:58:24 PM,-,1623329814020,
2021-06-10 02:58:24 PM,-,1623329814023,
2021-06-10 02:58:24 PM,-,1623329814026,
2021-06-10 02:58:24 PM,-,1623329814030,
2021-06-10 02:58:24 PM,-,1623329814033,
2021-06-10 02:58:24 PM,-,1623329814036,
2021-06-10 02:58:24 PM,-,1623329814040,
2021-06-10 02:58:24 PM,-,1623329814043,
2021-06-10 02:58:24 PM,-,1623329814046,
2021-06-10 02:58:24 PM,-,1623329814050,
2021-06-10 02:58:24 PM,-,1623329814053,
2021-06-10 02:58:24 PM,-,1623329814056,
2021-06-10 02:58:24 PM,-,1623329814060,
2021-06-10 02:58:24 PM,-,1623329814063,
2021-06-10 02:58:24 PM,-,1623329814066,
2021-06-10 02:58:24 PM,-,1623329814070,
2021-06-10 02:58:24 PM,-,1623329814073,
2021-06-10 02:58:24 PM,-,1623329814076,
2021-06-10 02:58:24 PM,-,1623329814080,
2021-06-10 02:58:24 PM,-,1623329814083,
2021-06-10 02:58:24 PM,-,1623329814086,
2021-06-10 02:58:24 PM,-,1623329814090,
2021-06-10 02:58:24 PM,-,1623329814093,
2021-06-10 02:58:24 PM,-,1623329814096,
2021-06-10 02:58:24 PM,-,1623329814100,
2021-06-10 02:58:24 PM,-,1623329814103,
2021-06-10 02:58:24 PM,-,1623329814106,
2021-06-10 02:58:24 PM,-,1623329814110,
2021-06-10 02:58:24 PM,-,1623329814113,
2021-06-10 02:58:24 PM,-,1623329814116,
2021-06-10 02:58:24 PM,-,1623329814120,
2021-06-10 02:58:24 PM,-,1623329814123,
2021-06-10 02:58:24 PM,-,1623329814126,
2021-06-10 02:58:24 PM,-,1623329814130,
2021-06-10 02:58:24 PM,-,1623329814133,
2021-06-10 02:58:24 PM,-,1623329814136,
2021-06-10 02:58:24 PM,-,1623329814140,
2021-06-10 02:58:24 PM,-,1623329814143,
2021-06-10 02:58:24 PM,-,1623329814146,
2021-06-10 02:58:24 PM,-,1623329814150,
2021-06-10 02:58:24 PM,-,1623329814153,
2021-06-10 02:58:24 PM,-,1623329814156,
2021-06-10 02:58:24 PM,-,1623329814160,
2021-06-10 02:58:24 PM,-,1623329814163,
2021-06-10 02:58:24 PM,-,1623329814166,
2021-06-10 02:58:24 PM,-,1623329814170,
2021-06-10 02:58:24 PM,-,1623329814173,
2021-06-10 02:58:24 PM,-,1623329814176,
2021-06-10 02:58:24 PM,-,1623329814180,
2021-06-10 02:58:24 PM,-,1623329814183,
2021-06-10 02:58:24 PM,-,1623329814186,
2021-06-10 02:58:24 PM,-,1623329814190,
2021-06-10 02:58:24 PM,-,1623329814193,
2021-06-10 02:58:24 PM,-,1623329814196,
2021-06-10 02:58:24 PM,-,1623329814200,
2021-06-10 02:58:24 PM,-,1623329814203,
2021-06-10 02:58:24 PM,-,1623329814206,
2021-06-10 02:58:24 PM,-,1623329814210,
2021-06-10 02:58:24 PM,-,1623329814213,
2021-06-10 02:58:24 PM,-,1623329814216,
2021-06-10 02:58:24 PM,-,1623329814220,
2021-06-10 02:58:24 PM,-,1623329814223,
2021-06-10 02:58:24 PM,-,1623329814226,
2021-06-10 02:58:24 PM,-,1623329814230,
2021-06-10 02:58:24 PM,-,1623329814233,
2021-06-10 02:58:24 PM,-,1623329814236,
2021-06-10 02:58:24 PM,-,1623329814240,
2021-06-10 02:58:24 PM,-,1623329814243,
2021-06-10 02:58:24 PM,-,1623329814246,
2021-06-10 02:58:24 PM,-,1623329814250,
2021-06-10 02:58:24 PM,-,1623329814253,
2021-06-10 02:58:24 PM,-,1623329814256,
2021-06-10 02:58:24 PM,-,1623329814260,
2021-06-10 02:58:24 PM,-,1623329814263,
2021-06-10 02:58:24 PM,-,1623329814266,
2021-06-10 02:58:24 PM,-,1623329814270,
2021-06-10 02:58:24 PM,-,1623329814273,
2021-06-10 02:58:24 PM,-,1623329814276,
2021-06-10 02:58:24 PM,-,1623329814280,
2021-06-10 02:58:24 PM,-,1623329814283,
2021-06-10 02:58:24 PM,-,1623329814286,
2021-06-10 02:58:24 PM,-,1623329814290,
2021-06-10 02:58:24 PM,-,1623329814293,
2021-06-10 02:58:24 PM,-,1623329814296,
2021-06-10 02:58:24 PM,-,1623329814300,
2021-06-10 02:58:24 PM,-,1623329814303,
2021-06-10 02:58:24 PM,-,1623329814306,
2021-06-10 02:58:24 PM,-,1623329814310,
2021-06-10 02:58:24 PM,-,1623329814313,
2021-06-10 02:58:24 PM,-,1623329814316,
2021-06-10 02:58:24 PM,-,1623329814320,
2021-06-10 02:58:24 PM,-,1623329814323,
2021-06-10 02:58:24 PM,-,1623329814326,
2021-06-10 02:58:24 PM,-,1623329814330,
2021-06-10 02:58:24 PM,-,1623329814333,
2021-06-10 02:58:24 PM,-,1623329814336,
2021-06-10 02:58:24 PM,-,1623329814340,
2021-06-10 02:58:24 PM,-,1623329814343,
2021-06-10 02:58:24 PM,-,1623329814346,
2021-06-10 02:58:24 PM,-,1623329814350,
2021-06-10 02:58:24 PM,-,1623329814353,
2021-06-10 02:58:24 PM,-,1623329814356,
2021-06-10 02:58:24 PM,-,1623329814360,
2021-06-10 02:58:24 PM,-,1623329814363,
2021-06-10 02:58:24 PM,-,1623329814366,
2021-06-10 02:58:24 PM,-,1623329814370,
2021-06-10 02:58:24 PM,-,1623329814373,
2021-06-10 02:58:24 PM,-,1623329814376,
2021-06-10 02:58:24 PM,-,1623329814380,
2021-06-10 02:58:24 PM,-,1623329814383,
2021-06-10 02:58:24 PM,-,1623329814386,
2021-06-10 02:58:24 PM,-,1623329814390,
2021-06-10 02:58:24 PM,-,1623329814393,
2021-06-10 02:58:24 PM,-,1623329814396,
2021-06-10 02:58:24 PM,-,1623329814400,
2021-06-10 02:58:24 PM,-,1623329814403,
2021-06-10 02:58:24 PM,-,1623329814406,
2021-06-10 02:58:24 PM,-,1623329814410,
2021-06-10 02:58:24 PM,-,1623329814413,
2021-06-10 02:58:24 PM,-,1623329814416,
2021-06-10 02:58:24 PM,-,1623329814420,
2021-06-10 02:58:24 PM,-,1623329814423,
2021-06-10 02:58:24 PM,-,1623329814426,
2021-06-10 02:58:24 PM,-,1623329814430,
2021-06-10 02:58:24 PM,-,1623329814433,
2021-06-10 02:58:24 PM,-,1623329814436,
2021-06-10 02:58:24 PM,-,1623329814440,
2021-06-10 02:58:24 PM,-,1623329814443,
2021-06-10 02:58:24 PM,-,1623329814446,
2021-06-10 02:58:24 PM,-,1623329814450,
2021-06-10 02:58:24 PM,-,1623329814453,
2021-06-10 02:58:24 PM,-,1623329814456,
2021-06-10 02:58:24 PM,-,1623329814460,
2021-06-10 02:58:24 PM,-,1623329814463,
2021-06-10 02:58:24 PM,-,1623329814466,
2021-06-10 02:58:24 PM,-,1623329814470,
2021-06-10 02:58:24 PM,-,1623329814473,
2021-06-10 02:58:24 PM,-,1623329814476,
2021-06-10 02:58:24 PM,-,1623329814480,
2021-06-10 02:58:24 PM,-,1623329814483,
2021-06-10 02:58:24 PM,-,1623329814486,
2021-06-10 02:58:24 PM,-,1623329814490,
2021-06-10 02:58:24 PM,-,1623329814493,
2021-06-10 02:58:24 PM,-,1623329814496,
2021-06-10 02:58:24 PM,-,1623329814500,
2021-06-10 02:58:24 PM,-,1623329814503,
2021-06-10 02:58:24 PM,-,1623329814506,
2021-06-10 02:58:24 PM,-,1623329814510,
2021-06-10 02:58:24 PM,-,1623329814513,
2021-06-10 02:58:24 PM,-,1623329814516,
2021-06-10 02:58:24 PM,-,1623329814520,
2021-06-10 02:58:24 PM,-,1623329814523,
2021-06-10 02:58:24 PM,-,1623329814526,
2021-06-10 02:58:24 PM,-,1623329814530,
2021-06-10 02:58:24 PM,-,1623329814533,
2021-06-10 02:58:24 PM,-,1623329814536,
2021-06-10 02:58:24 PM,-,1623329814540,
2021-06-10 02:58:24 PM,-,1623329814543,
2021-06-10 02:58:24 PM,-,1623329814546,
2021-06-10 02:58:24 PM,-,1623329814550,
2021-06-10 02:58:24 PM,-,1623329814553,
2021-06-10 02:58:24 PM,-,1623329814556,
2021-06-10 02:58:24 PM,-,1623329814560,
2021-06-10 02:58:24 PM,-,1623329814563,
2021-06-10 02:58:24 PM,-,1623329814566,
2021-06-10 02:58:24 PM,-,1623329814570,
2021-06-10 02:58:24 PM,-,1623329814573,
2021-06-10 02:58:24 PM,-,1623329814576,
2021-06-10 02:58:24 PM,-,1623329814580,
2021-06-10 02:58:24 PM,-,1623329814583,
2021-06-10 02:58:24 PM,-,1623329814586,
2021-06-10 02:58:24 PM,-,1623329814590,
2021-06-10 02:58:24 PM,-,1623329814593,
2021-06-10 02:58:24 PM,-,1623329814596,
2021-06-10 02:58:24 PM,-,1623329814600,
2021-06-10 02:58:24 PM,-,1623329814603,
2021-06-10 02:58:24 PM,-,1623329814606,
2021-06-10 02:58:24 PM,-,1623329814610,
2021-06-10 02:58:24 PM,-,1623329814613,
2021-06-10 02:58:24 PM,-,1623329814616,
2021-06-10 02:58:24 PM,-,1623329814620,
2021-06-10 02:58:24 PM,-,1623329814623,
2021-06-10 02:58:24 PM,-,1623329814626,
2021-06-10 02:58:24 PM,-,1623329814630,
2021-06-10 02:58:24 PM,-,1623329814633,
2021-06-10 02:58:24 PM,-,1623329814636,
2021-06-10 02:58:24 PM,-,1623329814640,
2021-06-10 02:58:24 PM,-,1623329814643,
2021-06-10 02:58:24 PM,-,1623329814646,
2021-06-10 02:58:24 PM,-,1623329814650,
2021-06-10 02:58:24 PM,-,1623329814653,
2021-06-10 02:58:24 PM,-,1623329814656,
2021-06-10 02:58:24 PM,-,1623329814660,
2021-06-10 02:58:24 PM,-,1623329814663,
2021-06-10 02:58:24 PM,-,1623329814666,
2021-06-10 02:58:24 PM,-,1623329814670,
2021-06-10 02:58:24 PM,-,1623329814673,
2021-06-10 02:58:24 PM,-,1623329814676,
2021-06-10 02:58:24 PM,-,1623329814680,
2021-06-10 02:58:24 PM,-,1623329814683,
2021-06-10 02:58:24 PM,-,1623329814686,
2021-06-10 02:58:24 PM,-,1623329814690,
2021-06-10 02:58:24 PM,-,1623329814693,
2021-06-10 02:58:24 PM,-,1623329814696,
2021-06-10 02:58:24 PM,-,1623329814700,
2021-06-10 02:58:24 PM,-,1623329814703,
2021-06-10 02:58:24 PM,-,1623329814706,
2021-06-10 02:58:24 PM,-,1623329814710,
2021-06-10 02:58:24 PM,-,1623329814713,
2021-06-10 02:58:24 PM,-,1623329814716,
2021-06-10 02:58:24 PM,-,1623329814720,
2021-06-10 02:58:24 PM,-,1623329814723,
2021-06-10 02:58:24 PM,-,1623329814726,
2021-06-10 02:58:24 PM,-,1623329814730,
2021-06-10 02:58:24 PM,-,1623329814733,
2021-06-10 02:58:24 PM,-,1623329814736,
2021-06-10 02:58:24 PM,-,1623329814740,
2021-06-10 02:58:24 PM,-,1623329814743,
2021-06-10 02:58:24 PM,-,1623329814746,
2021-06-10 02:58:24 PM,-,1623329814750,
2021-06-10 02:58:24 PM,-,1623329814753,
2021-06-10 02:58:24 PM,-,1623329814756,
2021-06-10 02:58:24 PM,-,1623329814760,
2021-06-10 02:58:24 PM,-,1623329814763,
2021-06-10 02:58:24 PM,-,1623329814766,
2021-06-10 02:58:24 PM,-,1623329814770,
2021-06-10 02:58:24 PM,-,1623329814773,
2021-06-10 02:58:24 PM,-,1623329814776,
2021-06-10 02:58:24 PM,-,1623329814780,
2021-06-10 02:58:24 PM,-,1623329814783,
2021-06-10 02:58:24 PM,-,1623329814786,
2021-06-10 02:58:24 PM,-,1623329814790,
2021-06-10 02:58:24 PM,-,1623329814793,
2021-06-10 02:58:24 PM,-,1623329814796,
2021-06-10 02:58:24 PM,-,1623329814800,
2021-06-10 02:58:24 PM,-,1623329814803,
2021-06-10 02:58:24 PM,-,1623329814806,
2021-06-10 02:58:24 PM,-,1623329814810,
2021-06-10 02:58:24 PM,-,1623329814813,
2021-06-10 02:58:24 PM,-,1623329814816,
2021-06-10 02:58:24 PM,-,1623329814820,
2021-06-10 02:58:24 PM,-,1623329814823,
2021-06-10 02:58:24 PM,-,1623329814826,
2021-06-10 02:58:24 PM,-,1623329814830,
2021-06-10 02:58:24 PM,-,1623329814833,
2021-06-10 02:58:24 PM,-,1623329814836,
2021-06-10 02:58:24 PM,-,1623329814840,
2021-06-10 02:58:24 PM,-,1623329814843,
2021-06-10 02:58:24 PM,-,1623329814846,
2021-06-10 02:58:24 PM,-,1623329814850,
2021-06-10 02:58:24 PM,-,1623329814853,
2021-06-10 02:58:24 PM,-,1623329814856,
2021-06-10 02:58:24 PM,-,1623329814860,
2021-06-10 02:58:24 PM,-,1623329814863,
2021-06-10 02:58:24 PM,-,1623329814866,
2021-06-10 02:58:24 PM,-,1623329814870,
2021-06-10 02:58:24 PM,-,1623329814873,
2021-06-10 02:58:24 PM,-,1623329814876,
2021-06-10 02:58:24 PM,-,1623329814880,
2021-06-10 02:58:24 PM,-,1623329814883,
2021-06-10 02:58:24 PM,-,1623329814886,
2021-06-10 02:58:24 PM,-,1623329814890,
2021-06-10 02:58:24 PM,-,1623329814893,
2021-06-10 02:58:24 PM,-,1623329814896,
2021-06-10 02:58:24 PM,-,1623329814900,
2021-06-10 02:58:24 PM,-,1623329814903,
2021-06-10 02:58:24 PM,-,1623329814906,
2021-06-10 02:58:24 PM,-,1623329814910,
2021-06-10 02:58:24 PM,-,1623329814913,
2021-06-10 02:58:24 PM,-,1623329814916,
2021-06-10 02:58:24 PM,-,1623329814920,
2021-06-10 02:58:24 PM,-,1623329814923,
2021-06-10 02:58:24 PM,-,1623329814926,
2021-06-10 02:58:24 PM,-,1623329814930,
2021-06-10 02:58:24 PM,-,1623329814933,
2021-06-10 02:58:24 PM,-,1623329814936,
2021-06-10 02:58:24 PM,-,1623329814940,
2021-06-10 02:58:24 PM,-,1623329814943,
2021-06-10 02:58:24 PM,-,1623329814946,
2021-06-10 02:58:24 PM,-,1623329814950,
2021-06-10 02:58:24 PM,-,1623329814953,
2021-06-10 02:58:24 PM,-,1623329814956,
2021-06-10 02:58:24 PM,-,1623329814960,
2021-06-10 02:58:24 PM,-,1623329814963,
2021-06-10 02:58:24 PM,-,1623329814966,
2021-06-10 02:58:24 PM,-,1623329814970,
2021-06-10 02:58:24 PM,-,1623329814973,
2021-06-10 02:58:24 PM,-,1623329814976,
2021-06-10 02:58:24 PM,-,1623329814980,
2021-06-10 02:58:24 PM,-,1623329814983,
2021-06-10 02:58:24 PM,-,1623329814986,
2021-06-10 02:58:24 PM,-,1623329814990,
2021-06-10 02:58:24 PM,-,1623329814993,
2021-06-10 02:58:24 PM,-,1623329814996,
2021-06-10 02:58:25 PM,-,1623329815000,
2021-06-10 02:58:25 PM,-,1623329815003,
2021-06-10 02:58:25 PM,-,1623329815006,
2021-06-10 02:58:25 PM,-,1623329815010,
2021-06-10 02:58:25 PM,-,1623329815013,
2021-06-10 02:58:25 PM,-,1623329815016,
2021-06-10 02:58:25 PM,-,1623329815020,
2021-06-10 02:58:25 PM,-,1623329815023,
2021-06-10 02:58:25 PM,-,1623329815026,
2021-06-10 02:58:25 PM,-,1623329815030,
2021-06-10 02:58:25 PM,-,1623329815033,
2021-06-10 02:58:25 PM,-,1623329815036,
2021-06-10 02:58:25 PM,-,1623329815040,
2021-06-10 02:58:25 PM,-,1623329815043,
2021-06-10 02:58:25 PM,-,1623329815046,
2021-06-10 02:58:25 PM,-,1623329815050,
2021-06-10 02:58:25 PM,-,1623329815053,
2021-06-10 02:58:25 PM,-,1623329815056,
2021-06-10 02:58:25 PM,-,1623329815060,
2021-06-10 02:58:25 PM,-,1623329815063,
2021-06-10 02:58:25 PM,-,1623329815066,
2021-06-10 02:58:25 PM,-,1623329815070,
2021-06-10 02:58:25 PM,-,1623329815073,
2021-06-10 02:58:25 PM,-,1623329815076,
2021-06-10 02:58:25 PM,-,1623329815080,
2021-06-10 02:58:25 PM,-,1623329815083,
2021-06-10 02:58:25 PM,-,1623329815086,
2021-06-10 02:58:25 PM,-,1623329815090,
2021-06-10 02:58:25 PM,-,1623329815093,
2021-06-10 02:58:25 PM,-,1623329815096,
2021-06-10 02:58:25 PM,-,1623329815100,
2021-06-10 02:58:25 PM,-,1623329815103,
2021-06-10 02:58:25 PM,-,1623329815106,
2021-06-10 02:58:25 PM,-,1623329815110,
2021-06-10 02:58:25 PM,-,1623329815113,
2021-06-10 02:58:25 PM,-,1623329815116,
2021-06-10 02:58:25 PM,-,1623329815120,
2021-06-10 02:58:25 PM,-,1623329815123,
2021-06-10 02:58:25 PM,-,1623329815126,
2021-06-10 02:58:25 PM,-,1623329815130,
2021-06-10 02:58:25 PM,-,1623329815133,
2021-06-10 02:58:25 PM,-,1623329815136,
2021-06-10 02:58:25 PM,-,1623329815140,
2021-06-10 02:58:25 PM,-,1623329815143,
2021-06-10 02:58:25 PM,-,1623329815146,
2021-06-10 02:58:25 PM,-,1623329815150,
2021-06-10 02:58:25 PM,-,1623329815153,
2021-06-10 02:58:25 PM,-,1623329815156,
2021-06-10 02:58:25 PM,-,1623329815160,
2021-06-10 02:58:25 PM,-,1623329815163,
2021-06-10 02:58:25 PM,-,1623329815166,
2021-06-10 02:58:25 PM,-,1623329815170,
2021-06-10 02:58:25 PM,-,1623329815173,
2021-06-10 02:58:25 PM,-,1623329815176,
2021-06-10 02:58:25 PM,-,1623329815180,
2021-06-10 02:58:25 PM,-,1623329815183,
2021-06-10 02:58:25 PM,-,1623329815186,
2021-06-10 02:58:25 PM,-,1623329815190,
2021-06-10 02:58:25 PM,-,1623329815193,
2021-06-10 02:58:25 PM,-,1623329815196,
2021-06-10 02:58:25 PM,-,1623329815200,
2021-06-10 02:58:25 PM,-,1623329815203,
2021-06-10 02:58:25 PM,-,1623329815206,
2021-06-10 02:58:25 PM,-,1623329815210,
2021-06-10 02:58:25 PM,-,1623329815213,
2021-06-10 02:58:25 PM,-,1623329815216,
2021-06-10 02:58:25 PM,-,1623329815220,
2021-06-10 02:58:25 PM,-,1623329815223,
2021-06-10 02:58:25 PM,-,1623329815226,
2021-06-10 02:58:25 PM,-,1623329815230,
2021-06-10 02:58:25 PM,-,1623329815233,
2021-06-10 02:58:25 PM,-,1623329815236,
2021-06-10 02:58:25 PM,-,1623329815240,
2021-06-10 02:58:25 PM,-,1623329815243,
2021-06-10 02:58:25 PM,-,1623329815246,
2021-06-10 02:58:25 PM,-,1623329815250,
2021-06-10 02:58:25 PM,-,1623329815253,
2021-06-10 02:58:25 PM,-,1623329815256,
2021-06-10 02:58:25 PM,-,1623329815260,
2021-06-10 02:58:25 PM,-,1623329815263,
2021-06-10 02:58:25 PM,-,1623329815266,
2021-06-10 02:58:25 PM,-,1623329815270,
2021-06-10 02:58:25 PM,-,1623329815273,
2021-06-10 02:58:25 PM,-,1623329815276,
2021-06-10 02:58:25 PM,-,1623329815280,
2021-06-10 02:58:25 PM,-,1623329815283,
2021-06-10 02:58:25 PM,-,1623329815286,
2021-06-10 02:58:25 PM,-,1623329815290,
2021-06-10 02:58:25 PM,-,1623329815293,
2021-06-10 02:58:25 PM,-,1623329815296,
2021-06-10 02:58:25 PM,-,1623329815300,
2021-06-10 02:58:25 PM,-,1623329815303,
2021-06-10 02:58:25 PM,-,1623329815306,
2021-06-10 02:58:25 PM,-,1623329815310,
2021-06-10 02:58:25 PM,-,1623329815313,
2021-06-10 02:58:25 PM,-,1623329815316,
2021-06-10 02:58:25 PM,-,1623329815320,
2021-06-10 02:58:25 PM,-,1623329815323,
2021-06-10 02:58:25 PM,-,1623329815326,
2021-06-10 02:58:25 PM,-,1623329815330,
2021-06-10 02:58:25 PM,-,1623329815333,
2021-06-10 02:58:25 PM,-,1623329815336,
2021-06-10 02:58:25 PM,-,1623329815340,
2021-06-10 02:58:25 PM,-,1623329815343,
2021-06-10 02:58:25 PM,-,1623329815346,
2021-06-10 02:58:25 PM,-,1623329815350,
2021-06-10 02:58:25 PM,-,1623329815353,
2021-06-10 02:58:25 PM,-,1623329815356,
2021-06-10 02:58:25 PM,-,1623329815360,
2021-06-10 02:58:25 PM,-,1623329815363,
2021-06-10 02:58:25 PM,-,1623329815366,
2021-06-10 02:58:25 PM,-,1623329815370,
2021-06-10 02:58:25 PM,-,1623329815373,
2021-06-10 02:58:25 PM,-,1623329815376,
2021-06-10 02:58:25 PM,-,1623329815380,
2021-06-10 02:58:25 PM,-,1623329815383,
2021-06-10 02:58:25 PM,-,1623329815386,
2021-06-10 02:58:25 PM,-,1623329815390,
2021-06-10 02:58:25 PM,-,1623329815393,
2021-06-10 02:58:25 PM,-,1623329815396,
2021-06-10 02:58:25 PM,-,1623329815400,
2021-06-10 02:58:25 PM,-,1623329815403,
2021-06-10 02:58:25 PM,-,1623329815406,
2021-06-10 02:58:25 PM,-,1623329815410,
2021-06-10 02:58:25 PM,-,1623329815413,
2021-06-10 02:58:25 PM,-,1623329815416,
2021-06-10 02:58:25 PM,-,1623329815420,
2021-06-10 02:58:25 PM,-,1623329815423,
2021-06-10 02:58:25 PM,-,1623329815426,
2021-06-10 02:58:25 PM,-,1623329815430,
2021-06-10 02:58:25 PM,-,1623329815433,
2021-06-10 02:58:25 PM,-,1623329815436,
2021-06-10 02:58:25 PM,-,1623329815440,
2021-06-10 02:58:25 PM,-,1623329815443,
2021-06-10 02:58:25 PM,-,1623329815446,
2021-06-10 02:58:25 PM,-,1623329815450,
2021-06-10 02:58:25 PM,-,1623329815453,
2021-06-10 02:58:25 PM,-,1623329815456,
2021-06-10 02:58:25 PM,-,1623329815460,
2021-06-10 02:58:25 PM,-,1623329815463,
2021-06-10 02:58:25 PM,-,1623329815466,
2021-06-10 02:58:25 PM,-,1623329815470,
2021-06-10 02:58:25 PM,-,1623329815473,
2021-06-10 02:58:25 PM,-,1623329815476,
2021-06-10 02:58:25 PM,-,1623329815480,
2021-06-10 02:58:25 PM,-,1623329815483,
2021-06-10 02:58:25 PM,-,1623329815486,
2021-06-10 02:58:25 PM,-,1623329815490,
2021-06-10 02:58:25 PM,-,1623329815493,
2021-06-10 02:58:25 PM,-,1623329815496,
2021-06-10 02:58:25 PM,-,1623329815500,
2021-06-10 02:58:25 PM,-,1623329815503,
2021-06-10 02:58:25 PM,-,1623329815506,
2021-06-10 02:58:25 PM,-,1623329815510,
2021-06-10 02:58:25 PM,-,1623329815513,
2021-06-10 02:58:25 PM,-,1623329815516,
2021-06-10 02:58:25 PM,-,1623329815520,
2021-06-10 02:58:25 PM,-,1623329815523,
2021-06-10 02:58:25 PM,-,1623329815526,
2021-06-10 02:58:25 PM,-,1623329815530,
2021-06-10 02:58:25 PM,-,1623329815533,
2021-06-10 02:58:25 PM,-,1623329815536,
2021-06-10 02:58:25 PM,-,1623329815540,
2021-06-10 02:58:25 PM,-,1623329815543,
2021-06-10 02:58:25 PM,-,1623329815546,
2021-06-10 02:58:25 PM,-,1623329815550,
2021-06-10 02:58:25 PM,-,1623329815553,
2021-06-10 02:58:25 PM,-,1623329815556,
2021-06-10 02:58:25 PM,-,1623329815560,
2021-06-10 02:58:25 PM,-,1623329815563,
2021-06-10 02:58:25 PM,-,1623329815566,
2021-06-10 02:58:25 PM,-,1623329815570,
2021-06-10 02:58:25 PM,-,1623329815573,
2021-06-10 02:58:25 PM,-,1623329815576,
2021-06-10 02:58:25 PM,-,1623329815580,
2021-06-10 02:58:25 PM,-,1623329815583,
2021-06-10 02:58:25 PM,-,1623329815586,
2021-06-10 02:58:25 PM,-,1623329815590,
2021-06-10 02:58:25 PM,-,1623329815593,
2021-06-10 02:58:25 PM,-,1623329815596,
2021-06-10 02:58:25 PM,-,1623329815600,
2021-06-10 02:58:25 PM,-,1623329815603,
2021-06-10 02:58:25 PM,-,1623329815606,
2021-06-10 02:58:25 PM,-,1623329815610,
2021-06-10 02:58:25 PM,-,1623329815613,
2021-06-10 02:58:25 PM,-,1623329815616,
2021-06-10 02:58:25 PM,-,1623329815620,
2021-06-10 02:58:25 PM,-,1623329815623,
2021-06-10 02:58:25 PM,-,1623329815626,
2021-06-10 02:58:25 PM,-,1623329815630,
2021-06-10 02:58:25 PM,-,1623329815633,
2021-06-10 02:58:25 PM,-,1623329815636,
2021-06-10 02:58:25 PM,-,1623329815640,
2021-06-10 02:58:25 PM,-,1623329815643,
2021-06-10 02:58:25 PM,-,1623329815646,
2021-06-10 02:58:25 PM,-,1623329815650,
2021-06-10 02:58:25 PM,-,1623329815653,
2021-06-10 02:58:25 PM,-,1623329815656,
2021-06-10 02:58:25 PM,-,1623329815660,
2021-06-10 02:58:25 PM,-,1623329815663,
2021-06-10 02:58:25 PM,-,1623329815666,
2021-06-10 02:58:25 PM,-,1623329815670,
2021-06-10 02:58:25 PM,-,1623329815673,
2021-06-10 02:58:25 PM,-,1623329815676,
2021-06-10 02:58:25 PM,-,1623329815680,
2021-06-10 02:58:25 PM,-,1623329815683,
2021-06-10 02:58:25 PM,-,1623329815686,
2021-06-10 02:58:25 PM,-,1623329815690,
2021-06-10 02:58:25 PM,-,1623329815693,
2021-06-10 02:58:25 PM,-,1623329815696,
2021-06-10 02:58:25 PM,-,1623329815700,
2021-06-10 02:58:25 PM,-,1623329815703,
2021-06-10 02:58:25 PM,-,1623329815706,
2021-06-10 02:58:25 PM,-,1623329815710,
2021-06-10 02:58:25 PM,-,1623329815713,
2021-06-10 02:58:25 PM,-,1623329815716,
2021-06-10 02:58:25 PM,-,1623329815720,
2021-06-10 02:58:25 PM,-,1623329815723,
2021-06-10 02:58:25 PM,-,1623329815726,
2021-06-10 02:58:25 PM,-,1623329815730,
2021-06-10 02:58:25 PM,-,1623329815733,
2021-06-10 02:58:25 PM,-,1623329815736,
2021-06-10 02:58:25 PM,-,1623329815740,
2021-06-10 02:58:25 PM,-,1623329815743,
2021-06-10 02:58:25 PM,-,1623329815746,
2021-06-10 02:58:25 PM,-,1623329815750,
2021-06-10 02:58:25 PM,-,1623329815753,
2021-06-10 02:58:25 PM,-,1623329815756,
2021-06-10 02:58:25 PM,-,1623329815760,
2021-06-10 02:58:25 PM,-,1623329815763,
2021-06-10 02:58:25 PM,-,1623329815766,
2021-06-10 02:58:25 PM,-,1623329815770,
2021-06-10 02:58:25 PM,-,1623329815773,
2021-06-10 02:58:25 PM,-,1623329815776,
2021-06-10 02:58:25 PM,-,1623329815780,
2021-06-10 02:58:25 PM,-,1623329815783,
2021-06-10 02:58:25 PM,-,1623329815786,
2021-06-10 02:58:25 PM,-,1623329815790,
2021-06-10 02:58:25 PM,-,1623329815793,
2021-06-10 02:58:25 PM,-,1623329815796,
2021-06-10 02:58:25 PM,-,1623329815800,
2021-06-10 02:58:25 PM,-,1623329815803,
2021-06-10 02:58:25 PM,-,1623329815806,
2021-06-10 02:58:25 PM,-,1623329815810,
2021-06-10 02:58:25 PM,-,1623329815813,
2021-06-10 02:58:25 PM,-,1623329815816,
2021-06-10 02:58:25 PM,-,1623329815820,
2021-06-10 02:58:25 PM,-,1623329815823,
2021-06-10 02:58:25 PM,-,1623329815826,
2021-06-10 02:58:25 PM,-,1623329815830,
2021-06-10 02:58:25 PM,-,1623329815833,
2021-06-10 02:58:25 PM,-,1623329815836,
2021-06-10 02:58:25 PM,-,1623329815840,
2021-06-10 02:58:25 PM,-,1623329815843,
2021-06-10 02:58:25 PM,-,1623329815846,
2021-06-10 02:58:25 PM,-,1623329815850,
2021-06-10 02:58:25 PM,-,1623329815853,
2021-06-10 02:58:25 PM,-,1623329815856,
2021-06-10 02:58:25 PM,-,1623329815860,
2021-06-10 02:58:25 PM,-,1623329815863,
2021-06-10 02:58:25 PM,-,1623329815866,
2021-06-10 02:58:25 PM,-,1623329815870,
2021-06-10 02:58:25 PM,-,1623329815873,
2021-06-10 02:58:25 PM,-,1623329815876,
2021-06-10 02:58:25 PM,-,1623329815880,
2021-06-10 02:58:25 PM,-,1623329815883,
2021-06-10 02:58:25 PM,-,1623329815886,
2021-06-10 02:58:25 PM,-,1623329815890,
2021-06-10 02:58:25 PM,-,1623329815893,
2021-06-10 02:58:25 PM,-,1623329815896,
2021-06-10 02:58:25 PM,-,1623329815900,
2021-06-10 02:58:25 PM,-,1623329815903,
2021-06-10 02:58:25 PM,-,1623329815906,
2021-06-10 02:58:25 PM,-,1623329815910,
2021-06-10 02:58:25 PM,-,1623329815913,
2021-06-10 02:58:25 PM,-,1623329815916,
2021-06-10 02:58:25 PM,-,1623329815920,
2021-06-10 02:58:25 PM,-,1623329815923,
2021-06-10 02:58:25 PM,-,1623329815926,
2021-06-10 02:58:25 PM,-,1623329815930,
2021-06-10 02:58:25 PM,-,1623329815933,
2021-06-10 02:58:25 PM,-,1623329815936,
2021-06-10 02:58:25 PM,-,1623329815940,
2021-06-10 02:58:25 PM,-,1623329815943,
2021-06-10 02:58:25 PM,-,1623329815946,
2021-06-10 02:58:25 PM,-,1623329815950,
2021-06-10 02:58:25 PM,-,1623329815953,
2021-06-10 02:58:25 PM,-,1623329815956,
2021-06-10 02:58:25 PM,-,1623329815960,
2021-06-10 02:58:25 PM,-,1623329815963,
2021-06-10 02:58:25 PM,-,1623329815966,
2021-06-10 02:58:25 PM,-,1623329815970,
2021-06-10 02:58:25 PM,-,1623329815973,
2021-06-10 02:58:25 PM,-,1623329815976,
2021-06-10 02:58:25 PM,-,1623329815980,
2021-06-10 02:58:25 PM,-,1623329815983,
2021-06-10 02:58:25 PM,-,1623329815986,
2021-06-10 02:58:25 PM,-,1623329815990,
2021-06-10 02:58:25 PM,-,1623329815993,
2021-06-10 02:58:25 PM,-,1623329815996,
2021-06-10 02:58:26 PM,-,1623329816000,
2021-06-10 02:58:26 PM,-,1623329816003,
2021-06-10 02:58:26 PM,-,1623329816006,
2021-06-10 02:58:26 PM,-,1623329816010,
2021-06-10 02:58:26 PM,-,1623329816013,
2021-06-10 02:58:26 PM,-,1623329816016,
2021-06-10 02:58:26 PM,-,1623329816020,
2021-06-10 02:58:26 PM,-,1623329816023,
2021-06-10 02:58:26 PM,-,1623329816026,
2021-06-10 02:58:26 PM,-,1623329816030,
2021-06-10 02:58:26 PM,-,1623329816033,
2021-06-10 02:58:26 PM,-,1623329816036,
2021-06-10 02:58:26 PM,-,1623329816040,
2021-06-10 02:58:26 PM,-,1623329816043,
2021-06-10 02:58:26 PM,-,1623329816046,
2021-06-10 02:58:26 PM,-,1623329816050,
2021-06-10 02:58:26 PM,-,1623329816053,
2021-06-10 02:58:26 PM,-,1623329816056,
2021-06-10 02:58:26 PM,-,1623329816060,
2021-06-10 02:58:26 PM,-,1623329816063,
2021-06-10 02:58:26 PM,-,1623329816066,
2021-06-10 02:58:26 PM,-,1623329816070,
2021-06-10 02:58:26 PM,-,1623329816073,
2021-06-10 02:58:26 PM,-,1623329816076,
2021-06-10 02:58:26 PM,-,1623329816080,
2021-06-10 02:58:26 PM,-,1623329816083,
2021-06-10 02:58:26 PM,-,1623329816086,
2021-06-10 02:58:26 PM,-,1623329816090,
2021-06-10 02:58:26 PM,-,1623329816093,
2021-06-10 02:58:26 PM,-,1623329816096,
2021-06-10 02:58:26 PM,-,1623329816100,
2021-06-10 02:58:26 PM,-,1623329816103,
2021-06-10 02:58:26 PM,-,1623329816106,
2021-06-10 02:58:26 PM,-,1623329816110,
2021-06-10 02:58:26 PM,-,1623329816113,
2021-06-10 02:58:26 PM,-,1623329816116,
2021-06-10 02:58:26 PM,-,1623329816120,
2021-06-10 02:58:26 PM,-,1623329816123,
2021-06-10 02:58:26 PM,-,1623329816126,
2021-06-10 02:58:26 PM,-,1623329816130,
2021-06-10 02:58:26 PM,-,1623329816133,
2021-06-10 02:58:26 PM,-,1623329816136,
2021-06-10 02:58:26 PM,-,1623329816140,
2021-06-10 02:58:26 PM,-,1623329816143,
2021-06-10 02:58:26 PM,-,1623329816146,
2021-06-10 02:58:26 PM,-,1623329816150,
2021-06-10 02:58:26 PM,-,1623329816153,
2021-06-10 02:58:26 PM,-,1623329816156,
2021-06-10 02:58:26 PM,-,1623329816160,
2021-06-10 02:58:26 PM,-,1623329816163,
2021-06-10 02:58:26 PM,-,1623329816166,
2021-06-10 02:58:26 PM,-,1623329816170,
2021-06-10 02:58:26 PM,-,1623329816173,
2021-06-10 02:58:26 PM,-,1623329816176,
2021-06-10 02:58:26 PM,-,1623329816180,
2021-06-10 02:58:26 PM,-,1623329816183,
2021-06-10 02:58:26 PM,-,1623329816186,
2021-06-10 02:58:26 PM,-,1623329816190,
2021-06-10 02:58:26 PM,-,1623329816193,
2021-06-10 02:58:26 PM,-,1623329816196,
2021-06-10 02:58:26 PM,-,1623329816200,
2021-06-10 02:58:26 PM,-,1623329816203,
2021-06-10 02:58:26 PM,-,1623329816206,
2021-06-10 02:58:26 PM,-,1623329816210,
2021-06-10 02:58:26 PM,-,1623329816213,
2021-06-10 02:58:26 PM,-,1623329816216,
2021-06-10 02:58:26 PM,-,1623329816220,
2021-06-10 02:58:26 PM,-,1623329816223,
2021-06-10 02:58:26 PM,-,1623329816226,
2021-06-10 02:58:26 PM,-,1623329816230,
2021-06-10 02:58:26 PM,-,1623329816233,
2021-06-10 02:58:26 PM,-,1623329816236,
2021-06-10 02:58:26 PM,-,1623329816240,
2021-06-10 02:58:26 PM,-,1623329816243,
2021-06-10 02:58:26 PM,-,1623329816246,
2021-06-10 02:58:26 PM,-,1623329816250,
2021-06-10 02:58:26 PM,-,1623329816253,
2021-06-10 02:58:26 PM,-,1623329816256,
2021-06-10 02:58:26 PM,-,1623329816260,
2021-06-10 02:58:26 PM,-,1623329816263,
2021-06-10 02:58:26 PM,-,1623329816266,
2021-06-10 02:58:26 PM,-,1623329816270,
2021-06-10 02:58:26 PM,-,1623329816273,
2021-06-10 02:58:26 PM,-,1623329816276,
2021-06-10 02:58:26 PM,-,1623329816280,
2021-06-10 02:58:26 PM,-,1623329816283,
2021-06-10 02:58:26 PM,-,1623329816286,
2021-06-10 02:58:26 PM,-,1623329816290,
2021-06-10 02:58:26 PM,-,1623329816293,
2021-06-10 02:58:26 PM,-,1623329816296,
2021-06-10 02:58:26 PM,-,1623329816300,
2021-06-10 02:58:26 PM,-,1623329816303,
2021-06-10 02:58:26 PM,-,1623329816306,
2021-06-10 02:58:26 PM,-,1623329816310,
2021-06-10 02:58:26 PM,-,1623329816313,
2021-06-10 02:58:26 PM,-,1623329816316,
2021-06-10 02:58:26 PM,-,1623329816320,
2021-06-10 02:58:26 PM,-,1623329816323,
2021-06-10 02:58:26 PM,-,1623329816326,
2021-06-10 02:58:26 PM,-,1623329816330,
2021-06-10 02:58:26 PM,-,1623329816333,
2021-06-10 02:58:26 PM,-,1623329816336,
2021-06-10 02:58:26 PM,-,1623329816340,
2021-06-10 02:58:26 PM,-,1623329816343,
2021-06-10 02:58:26 PM,-,1623329816346,
2021-06-10 02:58:26 PM,-,1623329816350,
2021-06-10 02:58:26 PM,-,1623329816353,
2021-06-10 02:58:26 PM,-,1623329816356,
2021-06-10 02:58:26 PM,-,1623329816360,
2021-06-10 02:58:26 PM,-,1623329816363,
2021-06-10 02:58:26 PM,-,1623329816366,
2021-06-10 02:58:26 PM,-,1623329816370,
2021-06-10 02:58:26 PM,-,1623329816373,
2021-06-10 02:58:26 PM,-,1623329816376,
2021-06-10 02:58:26 PM,-,1623329816380,
2021-06-10 02:58:26 PM,-,1623329816383,
2021-06-10 02:58:26 PM,-,1623329816386,
2021-06-10 02:58:26 PM,-,1623329816390,
2021-06-10 02:58:26 PM,-,1623329816393,
2021-06-10 02:58:26 PM,-,1623329816396,
2021-06-10 02:58:26 PM,-,1623329816400,
2021-06-10 02:58:26 PM,-,1623329816403,
2021-06-10 02:58:26 PM,-,1623329816406,
2021-06-10 02:58:26 PM,-,1623329816410,
2021-06-10 02:58:26 PM,-,1623329816413,
2021-06-10 02:58:26 PM,-,1623329816416,
2021-06-10 02:58:26 PM,-,1623329816420,
2021-06-10 02:58:26 PM,-,1623329816423,
2021-06-10 02:58:26 PM,-,1623329816426,
2021-06-10 02:58:26 PM,-,1623329816430,
2021-06-10 02:58:26 PM,-,1623329816433,
2021-06-10 02:58:26 PM,-,1623329816436,
2021-06-10 02:58:26 PM,-,1623329816440,
2021-06-10 02:58:26 PM,-,1623329816443,
2021-06-10 02:58:26 PM,-,1623329816446,
2021-06-10 02:58:26 PM,-,1623329816450,
2021-06-10 02:58:26 PM,-,1623329816453,
2021-06-10 02:58:26 PM,-,1623329816456,
2021-06-10 02:58:26 PM,-,1623329816460,
2021-06-10 02:58:26 PM,-,1623329816463,
2021-06-10 02:58:26 PM,-,1623329816466,
2021-06-10 02:58:26 PM,-,1623329816470,
2021-06-10 02:58:26 PM,-,1623329816473,
2021-06-10 02:58:26 PM,-,1623329816476,
2021-06-10 02:58:26 PM,-,1623329816480,
2021-06-10 02:58:26 PM,-,1623329816483,
2021-06-10 02:58:26 PM,-,1623329816486,
2021-06-10 02:58:26 PM,-,1623329816490,
2021-06-10 02:58:26 PM,-,1623329816493,
2021-06-10 02:58:26 PM,-,1623329816496,
2021-06-10 02:58:26 PM,-,1623329816500,
2021-06-10 02:58:26 PM,-,1623329816503,
2021-06-10 02:58:26 PM,-,1623329816506,
2021-06-10 02:58:26 PM,-,1623329816510,
2021-06-10 02:58:26 PM,-,1623329816513,
2021-06-10 02:58:26 PM,-,1623329816516,
2021-06-10 02:58:26 PM,-,1623329816520,
2021-06-10 02:58:26 PM,-,1623329816523,
2021-06-10 02:58:26 PM,-,1623329816526,
2021-06-10 02:58:26 PM,-,1623329816530,
2021-06-10 02:58:26 PM,-,1623329816533,
2021-06-10 02:58:26 PM,-,1623329816536,
2021-06-10 02:58:26 PM,-,1623329816540,
2021-06-10 02:58:26 PM,-,1623329816543,
2021-06-10 02:58:26 PM,-,1623329816546,
2021-06-10 02:58:26 PM,-,1623329816550,
2021-06-10 02:58:26 PM,-,1623329816553,
2021-06-10 02:58:26 PM,-,1623329816556,
2021-06-10 02:58:26 PM,-,1623329816560,
2021-06-10 02:58:26 PM,-,1623329816563,
2021-06-10 02:58:26 PM,-,1623329816566,
2021-06-10 02:58:26 PM,-,1623329816570,
2021-06-10 02:58:26 PM,-,1623329816573,
2021-06-10 02:58:26 PM,-,1623329816576,
2021-06-10 02:58:26 PM,-,1623329816580,
2021-06-10 02:58:26 PM,-,1623329816583,
2021-06-10 02:58:26 PM,-,1623329816586,
2021-06-10 02:58:26 PM,-,1623329816590,
2021-06-10 02:58:26 PM,-,1623329816593,
2021-06-10 02:58:26 PM,-,1623329816596,
2021-06-10 02:58:26 PM,-,1623329816600,
2021-06-10 02:58:26 PM,-,1623329816603,
2021-06-10 02:58:26 PM,-,1623329816606,
2021-06-10 02:58:26 PM,-,1623329816610,
2021-06-10 02:58:26 PM,-,1623329816613,
2021-06-10 02:58:26 PM,-,1623329816616,
2021-06-10 02:58:26 PM,-,1623329816620,
2021-06-10 02:58:26 PM,-,1623329816623,
2021-06-10 02:58:26 PM,-,1623329816626,
2021-06-10 02:58:26 PM,-,1623329816630,
2021-06-10 02:58:26 PM,-,1623329816633,
2021-06-10 02:58:26 PM,-,1623329816636,
2021-06-10 02:58:26 PM,-,1623329816640,
2021-06-10 02:58:26 PM,-,1623329816643,
2021-06-10 02:58:26 PM,-,1623329816646,
2021-06-10 02:58:26 PM,-,1623329816650,
2021-06-10 02:58:26 PM,-,1623329816653,
2021-06-10 02:58:26 PM,-,1623329816656,
2021-06-10 02:58:26 PM,-,1623329816660,
2021-06-10 02:58:26 PM,-,1623329816663,
2021-06-10 02:58:26 PM,-,1623329816666,
2021-06-10 02:58:26 PM,-,1623329816670,
2021-06-10 02:58:26 PM,-,1623329816673,
2021-06-10 02:58:26 PM,-,1623329816676,
2021-06-10 02:58:26 PM,-,1623329816680,
2021-06-10 02:58:26 PM,-,1623329816683,
2021-06-10 02:58:26 PM,-,1623329816686,
2021-06-10 02:58:26 PM,-,1623329816690,
2021-06-10 02:58:26 PM,-,1623329816693,
2021-06-10 02:58:26 PM,-,1623329816696,
2021-06-10 02:58:26 PM,-,1623329816700,
2021-06-10 02:58:26 PM,-,1623329816703,
2021-06-10 02:58:26 PM,-,1623329816706,
2021-06-10 02:58:26 PM,-,1623329816710,
2021-06-10 02:58:26 PM,-,1623329816713,
2021-06-10 02:58:26 PM,-,1623329816716,
2021-06-10 02:58:26 PM,-,1623329816720,
2021-06-10 02:58:26 PM,-,1623329816723,
2021-06-10 02:58:26 PM,-,1623329816726,
2021-06-10 02:58:26 PM,-,1623329816730,
2021-06-10 02:58:26 PM,-,1623329816733,
2021-06-10 02:58:26 PM,-,1623329816736,
2021-06-10 02:58:26 PM,-,1623329816740,
2021-06-10 02:58:26 PM,-,1623329816743,
2021-06-10 02:58:26 PM,-,1623329816746,
2021-06-10 02:58:26 PM,-,1623329816750,
2021-06-10 02:58:26 PM,-,1623329816753,
2021-06-10 02:58:26 PM,-,1623329816756,
2021-06-10 02:58:26 PM,-,1623329816760,
2021-06-10 02:58:26 PM,-,1623329816763,
2021-06-10 02:58:26 PM,-,1623329816766,
2021-06-10 02:58:26 PM,-,1623329816770,
2021-06-10 02:58:26 PM,-,1623329816773,
2021-06-10 02:58:26 PM,-,1623329816776,
2021-06-10 02:58:26 PM,-,1623329816780,
2021-06-10 02:58:26 PM,-,1623329816783,
2021-06-10 02:58:26 PM,-,1623329816786,
2021-06-10 02:58:26 PM,-,1623329816790,
2021-06-10 02:58:26 PM,-,1623329816793,
2021-06-10 02:58:26 PM,-,1623329816796,
2021-06-10 02:58:26 PM,-,1623329816800,
2021-06-10 02:58:26 PM,-,1623329816803,
2021-06-10 02:58:26 PM,-,1623329816806,
2021-06-10 02:58:26 PM,-,1623329816810,
2021-06-10 02:58:26 PM,-,1623329816813,
2021-06-10 02:58:26 PM,-,1623329816816,
2021-06-10 02:58:26 PM,-,1623329816820,
2021-06-10 02:58:26 PM,-,1623329816823,
2021-06-10 02:58:26 PM,-,1623329816826,
2021-06-10 02:58:26 PM,-,1623329816830,
2021-06-10 02:58:26 PM,-,1623329816833,
2021-06-10 02:58:26 PM,-,1623329816836,
2021-06-10 02:58:26 PM,-,1623329816840,
2021-06-10 02:58:26 PM,-,1623329816843,
2021-06-10 02:58:26 PM,-,1623329816846,
2021-06-10 02:58:26 PM,-,1623329816850,
2021-06-10 02:58:26 PM,-,1623329816853,
2021-06-10 02:58:26 PM,-,1623329816856,
2021-06-10 02:58:26 PM,-,1623329816860,
2021-06-10 02:58:26 PM,-,1623329816863,
2021-06-10 02:58:26 PM,-,1623329816866,
2021-06-10 02:58:26 PM,-,1623329816870,
2021-06-10 02:58:26 PM,-,1623329816873,
2021-06-10 02:58:26 PM,-,1623329816876,
2021-06-10 02:58:26 PM,-,1623329816880,
2021-06-10 02:58:26 PM,-,1623329816883,
2021-06-10 02:58:26 PM,-,1623329816886,
2021-06-10 02:58:26 PM,-,1623329816890,
2021-06-10 02:58:26 PM,-,1623329816893,
2021-06-10 02:58:26 PM,-,1623329816896,
2021-06-10 02:58:26 PM,-,1623329816900,
2021-06-10 02:58:26 PM,-,1623329816903,
2021-06-10 02:58:26 PM,-,1623329816906,
2021-06-10 02:58:26 PM,-,1623329816910,
2021-06-10 02:58:26 PM,-,1623329816913,
2021-06-10 02:58:26 PM,-,1623329816916,
2021-06-10 02:58:26 PM,-,1623329816920,
2021-06-10 02:58:26 PM,-,1623329816923,
2021-06-10 02:58:26 PM,-,1623329816926,
2021-06-10 02:58:26 PM,-,1623329816930,
2021-06-10 02:58:26 PM,-,1623329816933,
2021-06-10 02:58:26 PM,-,1623329816936,
2021-06-10 02:58:26 PM,-,1623329816940,
2021-06-10 02:58:26 PM,-,1623329816943,
2021-06-10 02:58:26 PM,-,1623329816946,
2021-06-10 02:58:26 PM,-,1623329816950,
2021-06-10 02:58:26 PM,-,1623329816953,
2021-06-10 02:58:26 PM,-,1623329816956,
2021-06-10 02:58:26 PM,-,1623329816960,
2021-06-10 02:58:26 PM,-,1623329816963,
2021-06-10 02:58:26 PM,-,1623329816966,
2021-06-10 02:58:26 PM,-,1623329816970,
2021-06-10 02:58:26 PM,-,1623329816973,
2021-06-10 02:58:26 PM,-,1623329816976,
2021-06-10 02:58:26 PM,-,1623329816980,
2021-06-10 02:58:26 PM,-,1623329816983,
2021-06-10 02:58:26 PM,-,1623329816986,
2021-06-10 02:58:26 PM,-,1623329816990,
2021-06-10 02:58:26 PM,-,1623329816993,
2021-06-10 02:58:26 PM,-,1623329816996,
2021-06-10 02:58:27 PM,-,1623329818000,
2021-06-10 02:58:27 PM,-,1623329818003,
2021-06-10 02:58:27 PM,-,1623329818006,
2021-06-10 02:58:27 PM,-,1623329818010,
2021-06-10 02:58:27 PM,-,1623329818013,
2021-06-10 02:58:27 PM,-,1623329818016,
2021-06-10 02:58:27 PM,-,1623329818020,
2021-06-10 02:58:27 PM,-,1623329818023,
2021-06-10 02:58:27 PM,-,1623329818026,
2021-06-10 02:58:27 PM,-,1623329818030,
2021-06-10 02:58:27 PM,-,1623329818033,
2021-06-10 02:58:27 PM,-,1623329818036,
2021-06-10 02:58:27 PM,-,1623329818040,
2021-06-10 02:58:27 PM,-,1623329818043,
2021-06-10 02:58:27 PM,-,1623329818046,
2021-06-10 02:58:27 PM,-,1623329818050,
2021-06-10 02:58:27 PM,-,1623329818053,
2021-06-10 02:58:27 PM,-,1623329818056,
2021-06-10 02:58:27 PM,-,1623329818060,
2021-06-10 02:58:27 PM,-,1623329818063,
2021-06-10 02:58:27 PM,-,1623329818066,
2021-06-10 02:58:27 PM,-,1623329818070,
2021-06-10 02:58:27 PM,-,1623329818073,
2021-06-10 02:58:27 PM,-,1623329818076,
2021-06-10 02:58:27 PM,-,1623329818080,
2021-06-10 02:58:27 PM,-,1623329818083,
2021-06-10 02:58:27 PM,-,1623329818086,
2021-06-10 02:58:27 PM,-,1623329818090,
2021-06-10 02:58:27 PM,-,1623329818093,
2021-06-10 02:58:27 PM,-,1623329818096,
2021-06-10 02:58:27 PM,-,1623329818100,
2021-06-10 02:58:27 PM,-,1623329818103,
2021-06-10 02:58:27 PM,-,1623329818106,
2021-06-10 02:58:27 PM,-,1623329818110,
2021-06-10 02:58:27 PM,-,1623329818113,
2021-06-10 02:58:27 PM,-,1623329818116,
2021-06-10 02:58:27 PM,-,1623329818120,
2021-06-10 02:58:27 PM,-,1623329818123,
2021-06-10 02:58:27 PM,-,1623329818126,
2021-06-10 02:58:27 PM,-,1623329818130,
2021-06-10 02:58:27 PM,-,1623329818133,
2021-06-10 02:58:27 PM,-,1623329818136,
2021-06-10 02:58:27 PM,-,1623329818140,
2021-06-10 02:58:27 PM,-,1623329818143,
2021-06-10 02:58:27 PM,-,1623329818146,
2021-06-10 02:58:27 PM,-,1623329818150,
2021-06-10 02:58:27 PM,-,1623329818153,
2021-06-10 02:58:27 PM,-,1623329818156,
2021-06-10 02:58:27 PM,-,1623329818160,
2021-06-10 02:58:27 PM,-,1623329818163,
2021-06-10 02:58:27 PM,-,1623329818166,
2021-06-10 02:58:27 PM,-,1623329818170,
2021-06-10 02:58:27 PM,-,1623329818173,
2021-06-10 02:58:27 PM,-,1623329818176,
2021-06-10 02:58:27 PM,-,1623329818180,
2021-06-10 02:58:27 PM,-,1623329818183,
2021-06-10 02:58:27 PM,-,1623329818186,
2021-06-10 02:58:27 PM,-,1623329818190,
2021-06-10 02:58:27 PM,-,1623329818193,
2021-06-10 02:58:27 PM,-,1623329818196,
2021-06-10 02:58:27 PM,-,1623329818200,
2021-06-10 02:58:27 PM,-,1623329818203,
2021-06-10 02:58:27 PM,-,1623329818206,
2021-06-10 02:58:27 PM,-,1623329818210,
2021-06-10 02:58:27 PM,-,1623329818213,
2021-06-10 02:58:27 PM,-,1623329818216,
2021-06-10 02:58:27 PM,-,1623329818220,
2021-06-10 02:58:27 PM,-,1623329818223,
2021-06-10 02:58:27 PM,-,1623329818226,
2021-06-10 02:58:27 PM,-,1623329818230,
2021-06-10 02:58:27 PM,-,1623329818233,
2021-06-10 02:58:27 PM,-,1623329818236,
2021-06-10 02:58:27 PM,-,1623329818240,
2021-06-10 02:58:27 PM,-,1623329818243,
2021-06-10 02:58:27 PM,-,1623329818246,
2021-06-10 02:58:27 PM,-,1623329818250,
2021-06-10 02:58:27 PM,-,1623329818253,
2021-06-10 02:58:27 PM,-,1623329818256,
2021-06-10 02:58:27 PM,-,1623329818260,
2021-06-10 02:58:27 PM,-,1623329818263,
2021-06-10 02:58:27 PM,-,1623329818266,
2021-06-10 02:58:27 PM,-,1623329818270,
2021-06-10 02:58:27 PM,-,1623329818273,
2021-06-10 02:58:27 PM,-,1623329818276,
2021-06-10 02:58:27 PM,-,1623329818280,
2021-06-10 02:58:27 PM,-,1623329818283,
2021-06-10 02:58:27 PM,-,1623329818286,
2021-06-10 02:58:27 PM,-,1623329818290,
2021-06-10 02:58:27 PM,-,1623329818293,
2021-06-10 02:58:27 PM,-,1623329818296,
2021-06-10 02:58:27 PM,-,1623329818300,
2021-06-10 02:58:27 PM,-,1623329818303,
2021-06-10 02:58:27 PM,-,1623329818306,
2021-06-10 02:58:27 PM,-,1623329818310,
2021-06-10 02:58:27 PM,-,1623329818313,
2021-06-10 02:58:27 PM,-,1623329818316,
2021-06-10 02:58:27 PM,-,1623329818320,
2021-06-10 02:58:27 PM,-,1623329818323,
2021-06-10 02:58:27 PM,-,1623329818326,
2021-06-10 02:58:27 PM,-,1623329818330,
2021-06-10 02:58:27 PM,-,1623329818333,
2021-06-10 02:58:27 PM,-,1623329818336,
2021-06-10 02:58:27 PM,-,1623329818340,
2021-06-10 02:58:27 PM,-,1623329818343,
2021-06-10 02:58:27 PM,-,1623329818346,
2021-06-10 02:58:27 PM,-,1623329818350,
2021-06-10 02:58:27 PM,-,1623329818353,
2021-06-10 02:58:27 PM,-,1623329818356,
2021-06-10 02:58:27 PM,-,1623329818360,
2021-06-10 02:58:27 PM,-,1623329818363,
2021-06-10 02:58:27 PM,-,1623329818366,
2021-06-10 02:58:27 PM,-,1623329818370,
2021-06-10 02:58:27 PM,-,1623329818373,
2021-06-10 02:58:27 PM,-,1623329818376,
2021-06-10 02:58:27 PM,-,1623329818380,
2021-06-10 02:58:27 PM,-,1623329818383,
2021-06-10 02:58:27 PM,-,1623329818386,
2021-06-10 02:58:27 PM,-,1623329818390,
2021-06-10 02:58:27 PM,-,1623329818393,
2021-06-10 02:58:27 PM,-,1623329818396,
2021-06-10 02:58:27 PM,-,1623329818400,
2021-06-10 02:58:27 PM,-,1623329818403,
2021-06-10 02:58:27 PM,-,1623329818406,
2021-06-10 02:58:27 PM,-,1623329818410,
2021-06-10 02:58:27 PM,-,1623329818413,
2021-06-10 02:58:27 PM,-,1623329818416,
2021-06-10 02:58:27 PM,-,1623329818420,
2021-06-10 02:58:27 PM,-,1623329818423,
2021-06-10 02:58:27 PM,-,1623329818426,
2021-06-10 02:58:27 PM,-,1623329818430,
2021-06-10 02:58:27 PM,-,1623329818433,
2021-06-10 02:58:27 PM,-,1623329818436,
2021-06-10 02:58:27 PM,-,1623329818440,
2021-06-10 02:58:27 PM,-,1623329818443,
2021-06-10 02:58:27 PM,-,1623329818446,
2021-06-10 02:58:27 PM,-,1623329818450,
2021-06-10 02:58:27 PM,-,1623329818453,
2021-06-10 02:58:27 PM,-,1623329818456,
2021-06-10 02:58:27 PM,-,1623329818460,
2021-06-10 02:58:27 PM,-,1623329818463,
2021-06-10 02:58:27 PM,-,1623329818466,
2021-06-10 02:58:27 PM,-,1623329818470,
2021-06-10 02:58:27 PM,-,1623329818473,
2021-06-10 02:58:27 PM,-,1623329818476,
2021-06-10 02:58:27 PM,-,1623329818480,
2021-06-10 02:58:27 PM,-,1623329818483,
2021-06-10 02:58:27 PM,-,1623329818486,
2021-06-10 02:58:27 PM,-,1623329818490,
2021-06-10 02:58:27 PM,-,1623329818493,
2021-06-10 02:58:27 PM,-,1623329818496,
2021-06-10 02:58:27 PM,-,1623329818500,
2021-06-10 02:58:27 PM,-,1623329818503,
2021-06-10 02:58:27 PM,-,1623329818506,
2021-06-10 02:58:27 PM,-,1623329818510,
2021-06-10 02:58:27 PM,-,1623329818513,
2021-06-10 02:58:27 PM,-,1623329818516,
2021-06-10 02:58:27 PM,-,1623329818520,
2021-06-10 02:58:27 PM,-,1623329818523,
2021-06-10 02:58:27 PM,-,1623329818526,
2021-06-10 02:58:27 PM,-,1623329818530,
2021-06-10 02:58:27 PM,-,1623329818533,
2021-06-10 02:58:27 PM,-,1623329818536,
2021-06-10 02:58:27 PM,-,1623329818540,
2021-06-10 02:58:27 PM,-,1623329818543,
2021-06-10 02:58:27 PM,-,1623329818546,
2021-06-10 02:58:27 PM,-,1623329818550,
2021-06-10 02:58:27 PM,-,1623329818553,
2021-06-10 02:58:27 PM,-,1623329818556,
2021-06-10 02:58:27 PM,-,1623329818560,
2021-06-10 02:58:27 PM,-,1623329818563,
2021-06-10 02:58:27 PM,-,1623329818566,
2021-06-10 02:58:27 PM,-,1623329818570,
2021-06-10 02:58:27 PM,-,1623329818573,
2021-06-10 02:58:27 PM,-,1623329818576,
2021-06-10 02:58:27 PM,-,1623329818580,
2021-06-10 02:58:27 PM,-,1623329818583,
2021-06-10 02:58:27 PM,-,1623329818586,
2021-06-10 02:58:27 PM,-,1623329818590,
2021-06-10 02:58:27 PM,-,1623329818593,
2021-06-10 02:58:27 PM,-,1623329818596,
2021-06-10 02:58:27 PM,-,1623329818600,
2021-06-10 02:58:27 PM,-,1623329818603,
2021-06-10 02:58:27 PM,-,1623329818606,
2021-06-10 02:58:27 PM,-,1623329818610,
2021-06-10 02:58:27 PM,-,1623329818613,
2021-06-10 02:58:27 PM,-,1623329818616,
2021-06-10 02:58:27 PM,-,1623329818620,
2021-06-10 02:58:27 PM,-,1623329818623,
2021-06-10 02:58:27 PM,-,1623329818626,
2021-06-10 02:58:27 PM,-,1623329818630,
2021-06-10 02:58:27 PM,-,1623329818633,
2021-06-10 02:58:27 PM,-,1623329818636,
2021-06-10 02:58:27 PM,-,1623329818640,
2021-06-10 02:58:27 PM,-,1623329818643,
2021-06-10 02:58:27 PM,-,1623329818646,
2021-06-10 02:58:27 PM,-,1623329818650,
2021-06-10 02:58:27 PM,-,1623329818653,
2021-06-10 02:58:27 PM,-,1623329818656,
2021-06-10 02:58:27 PM,-,1623329818660,
2021-06-10 02:58:27 PM,-,1623329818663,
2021-06-10 02:58:27 PM,-,1623329818666,
2021-06-10 02:58:27 PM,-,1623329818670,
2021-06-10 02:58:27 PM,-,1623329818673,
2021-06-10 02:58:27 PM,-,1623329818676,
2021-06-10 02:58:27 PM,-,1623329818680,
2021-06-10 02:58:27 PM,-,1623329818683,
2021-06-10 02:58:27 PM,-,1623329818686,
2021-06-10 02:58:27 PM,-,1623329818690,
2021-06-10 02:58:27 PM,-,1623329818693,
2021-06-10 02:58:27 PM,-,1623329818696,
2021-06-10 02:58:27 PM,-,1623329818700,
2021-06-10 02:58:27 PM,-,1623329818703,
2021-06-10 02:58:27 PM,-,1623329818706,
2021-06-10 02:58:27 PM,-,1623329818710,
2021-06-10 02:58:27 PM,-,1623329818713,
2021-06-10 02:58:27 PM,-,1623329818716,
2021-06-10 02:58:27 PM,-,1623329818720,
2021-06-10 02:58:27 PM,-,1623329818723,
2021-06-10 02:58:27 PM,-,1623329818726,
2021-06-10 02:58:27 PM,-,1623329818730,
2021-06-10 02:58:27 PM,-,1623329818733,
2021-06-10 02:58:27 PM,-,1623329818736,
2021-06-10 02:58:27 PM,-,1623329818740,
2021-06-10 02:58:27 PM,-,1623329818743,
2021-06-10 02:58:27 PM,-,1623329818746,
2021-06-10 02:58:27 PM,-,1623329818750,
2021-06-10 02:58:27 PM,-,1623329818753,
2021-06-10 02:58:27 PM,-,1623329818756,
2021-06-10 02:58:27 PM,-,1623329818760,
2021-06-10 02:58:27 PM,-,1623329818763,
2021-06-10 02:58:27 PM,-,1623329818766,
2021-06-10 02:58:27 PM,-,1623329818770,
2021-06-10 02:58:27 PM,-,1623329818773,
2021-06-10 02:58:27 PM,-,1623329818776,
2021-06-10 02:58:27 PM,-,1623329818780,
2021-06-10 02:58:27 PM,-,1623329818783,
2021-06-10 02:58:27 PM,-,1623329818786,
2021-06-10 02:58:27 PM,-,1623329818790,
2021-06-10 02:58:27 PM,-,1623329818793,
2021-06-10 02:58:27 PM,-,1623329818796,
2021-06-10 02:58:27 PM,-,1623329818800,
2021-06-10 02:58:27 PM,-,1623329818803,
2021-06-10 02:58:27 PM,-,1623329818806,
2021-06-10 02:58:27 PM,-,1623329818810,
2021-06-10 02:58:27 PM,-,1623329818813,
2021-06-10 02:58:27 PM,-,1623329818816,
2021-06-10 02:58:27 PM,-,1623329818820,
2021-06-10 02:58:27 PM,-,1623329818823,
2021-06-10 02:58:27 PM,-,1623329818826,
2021-06-10 02:58:27 PM,-,1623329818830,
2021-06-10 02:58:27 PM,-,1623329818833,
2021-06-10 02:58:27 PM,-,1623329818836,
2021-06-10 02:58:27 PM,-,1623329818840,
2021-06-10 02:58:27 PM,-,1623329818843,
2021-06-10 02:58:27 PM,-,1623329818846,
2021-06-10 02:58:27 PM,-,1623329818850,
2021-06-10 02:58:27 PM,-,1623329818853,
2021-06-10 02:58:27 PM,-,1623329818856,
2021-06-10 02:58:27 PM,-,1623329818860,
2021-06-10 02:58:27 PM,-,1623329818863,
2021-06-10 02:58:27 PM,-,1623329818866,
2021-06-10 02:58:27 PM,-,1623329818870,
2021-06-10 02:58:27 PM,-,1623329818873,
2021-06-10 02:58:27 PM,-,1623329818876,
2021-06-10 02:58:27 PM,-,1623329818880,
2021-06-10 02:58:27 PM,-,1623329818883,
2021-06-10 02:58:27 PM,-,1623329818886,
2021-06-10 02:58:27 PM,-,1623329818890,
2021-06-10 02:58:27 PM,-,1623329818893,
2021-06-10 02:58:27 PM,-,1623329818896,
2021-06-10 02:58:27 PM,-,1623329818900,
2021-06-10 02:58:27 PM,-,1623329818903,
2021-06-10 02:58:27 PM,-,1623329818906,
2021-06-10 02:58:27 PM,-,1623329818910,
2021-06-10 02:58:27 PM,-,1623329818913,
2021-06-10 02:58:27 PM,-,1623329818916,
2021-06-10 02:58:27 PM,-,1623329818920,
2021-06-10 02:58:27 PM,-,1623329818923,
2021-06-10 02:58:27 PM,-,1623329818926,
2021-06-10 02:58:27 PM,-,1623329818930,
2021-06-10 02:58:27 PM,-,1623329818933,
2021-06-10 02:58:27 PM,-,1623329818936,
2021-06-10 02:58:27 PM,-,1623329818940,
2021-06-10 02:58:27 PM,-,1623329818943,
2021-06-10 02:58:27 PM,-,1623329818946,
2021-06-10 02:58:27 PM,-,1623329818950,
2021-06-10 02:58:27 PM,-,1623329818953,
2021-06-10 02:58:27 PM,-,1623329818956,
2021-06-10 02:58:27 PM,-,1623329818960,
2021-06-10 02:58:27 PM,-,1623329818963,
2021-06-10 02:58:27 PM,-,1623329818966,
2021-06-10 02:58:27 PM,-,1623329818970,
2021-06-10 02:58:27 PM,-,1623329818973,
2021-06-10 02:58:27 PM,-,1623329818976,
2021-06-10 02:58:27 PM,-,1623329818980,
2021-06-10 02:58:27 PM,-,1623329818983,
2021-06-10 02:58:27 PM,-,1623329818986,
2021-06-10 02:58:27 PM,-,1623329818990,
2021-06-10 02:58:27 PM,-,1623329818993,
2021-06-10 02:58:27 PM,-,1623329818996,
