2021-08-03 11:30:40 AM,-,1627982918000,
2021-08-03 11:30:40 AM,-,1627982918003,
2021-08-03 11:30:40 AM,-,1627982918006,
2021-08-03 11:30:40 AM,-,1627982918010,
2021-08-03 11:30:40 AM,-,1627982918013,
2021-08-03 11:30:40 AM,-,1627982918016,
2021-08-03 11:30:40 AM,-,1627982918020,
2021-08-03 11:30:40 AM,-,1627982918023,
2021-08-03 11:30:40 AM,-,1627982918026,
2021-08-03 11:30:40 AM,-,1627982918030,
2021-08-03 11:30:40 AM,-,1627982918033,
2021-08-03 11:30:40 AM,-,1627982918036,
2021-08-03 11:30:40 AM,-,1627982918040,
2021-08-03 11:30:40 AM,-,1627982918043,
2021-08-03 11:30:40 AM,-,1627982918046,
2021-08-03 11:30:40 AM,-,1627982918050,
2021-08-03 11:30:40 AM,-,1627982918053,
2021-08-03 11:30:40 AM,-,1627982918056,
2021-08-03 11:30:40 AM,-,1627982918060,
2021-08-03 11:30:40 AM,-,1627982918063,
2021-08-03 11:30:40 AM,-,1627982918066,
2021-08-03 11:30:40 AM,-,1627982918070,
2021-08-03 11:30:40 AM,-,1627982918073,
2021-08-03 11:30:40 AM,-,1627982918076,
2021-08-03 11:30:40 AM,-,1627982918080,
2021-08-03 11:30:40 AM,-,1627982918083,
2021-08-03 11:30:40 AM,-,1627982918086,
2021-08-03 11:30:40 AM,-,1627982918090,
2021-08-03 11:30:40 AM,-,1627982918093,
2021-08-03 11:30:40 AM,-,1627982918096,
2021-08-03 11:30:40 AM,-,1627982918100,
2021-08-03 11:30:40 AM,-,1627982918103,
2021-08-03 11:30:40 AM,-,1627982918106,
2021-08-03 11:30:40 AM,-,1627982918110,
2021-08-03 11:30:40 AM,-,1627982918113,
2021-08-03 11:30:40 AM,-,1627982918116,
2021-08-03 11:30:40 AM,-,1627982918120,
2021-08-03 11:30:40 AM,-,1627982918123,
2021-08-03 11:30:40 AM,-,1627982918126,
2021-08-03 11:30:40 AM,-,1627982918130,
2021-08-03 11:30:40 AM,-,1627982918133,
2021-08-03 11:30:40 AM,-,1627982918136,
2021-08-03 11:30:40 AM,-,1627982918140,
2021-08-03 11:30:40 AM,-,1627982918143,
2021-08-03 11:30:40 AM,-,1627982918146,
2021-08-03 11:30:40 AM,-,1627982918150,
2021-08-03 11:30:40 AM,-,1627982918153,
2021-08-03 11:30:40 AM,-,1627982918156,
2021-08-03 11:30:40 AM,-,1627982918160,
2021-08-03 11:30:40 AM,-,1627982918163,
2021-08-03 11:30:40 AM,-,1627982918166,
2021-08-03 11:30:40 AM,-,1627982918170,
2021-08-03 11:30:40 AM,-,1627982918173,
2021-08-03 11:30:40 AM,-,1627982918176,
2021-08-03 11:30:40 AM,-,1627982918180,
2021-08-03 11:30:40 AM,-,1627982918183,
2021-08-03 11:30:40 AM,-,1627982918186,
2021-08-03 11:30:40 AM,-,1627982918190,
2021-08-03 11:30:40 AM,-,1627982918193,
2021-08-03 11:30:40 AM,-,1627982918196,
2021-08-03 11:30:40 AM,-,1627982918200,
2021-08-03 11:30:40 AM,-,1627982918203,
2021-08-03 11:30:40 AM,-,1627982918206,
2021-08-03 11:30:40 AM,-,1627982918210,
2021-08-03 11:30:40 AM,-,1627982918213,
2021-08-03 11:30:40 AM,-,1627982918216,
2021-08-03 11:30:40 AM,-,1627982918220,
2021-08-03 11:30:40 AM,-,1627982918223,
2021-08-03 11:30:40 AM,-,1627982918226,
2021-08-03 11:30:40 AM,-,1627982918230,
2021-08-03 11:30:40 AM,-,1627982918233,
2021-08-03 11:30:40 AM,-,1627982918236,
2021-08-03 11:30:40 AM,-,1627982918240,
2021-08-03 11:30:40 AM,-,1627982918243,
2021-08-03 11:30:40 AM,-,1627982918246,
2021-08-03 11:30:40 AM,-,1627982918250,
2021-08-03 11:30:40 AM,-,1627982918253,
2021-08-03 11:30:40 AM,-,1627982918256,
2021-08-03 11:30:40 AM,-,1627982918260,
2021-08-03 11:30:40 AM,-,1627982918263,
2021-08-03 11:30:40 AM,-,1627982918266,
2021-08-03 11:30:40 AM,-,1627982918270,
2021-08-03 11:30:40 AM,-,1627982918273,
2021-08-03 11:30:40 AM,-,1627982918276,
2021-08-03 11:30:40 AM,-,1627982918280,
2021-08-03 11:30:40 AM,-,1627982918283,
2021-08-03 11:30:40 AM,-,1627982918286,
2021-08-03 11:30:40 AM,-,1627982918290,
2021-08-03 11:30:40 AM,-,1627982918293,
2021-08-03 11:30:40 AM,-,1627982918296,
2021-08-03 11:30:40 AM,-,1627982918300,
2021-08-03 11:30:40 AM,-,1627982918303,
2021-08-03 11:30:40 AM,-,1627982918306,
2021-08-03 11:30:40 AM,-,1627982918310,
2021-08-03 11:30:40 AM,-,1627982918313,
2021-08-03 11:30:40 AM,-,1627982918316,
2021-08-03 11:30:40 AM,-,1627982918320,
2021-08-03 11:30:40 AM,-,1627982918323,
2021-08-03 11:30:40 AM,-,1627982918326,
2021-08-03 11:30:40 AM,-,1627982918330,
2021-08-03 11:30:40 AM,-,1627982918333,
2021-08-03 11:30:40 AM,-,1627982918336,
2021-08-03 11:30:40 AM,-,1627982918340,
2021-08-03 11:30:40 AM,-,1627982918343,
2021-08-03 11:30:40 AM,-,1627982918346,
2021-08-03 11:30:40 AM,-,1627982918350,
2021-08-03 11:30:40 AM,-,1627982918353,
2021-08-03 11:30:40 AM,-,1627982918356,
2021-08-03 11:30:40 AM,-,1627982918360,
2021-08-03 11:30:40 AM,-,1627982918363,
2021-08-03 11:30:40 AM,-,1627982918366,
2021-08-03 11:30:40 AM,-,1627982918370,
2021-08-03 11:30:40 AM,-,1627982918373,
2021-08-03 11:30:40 AM,-,1627982918376,
2021-08-03 11:30:40 AM,-,1627982918380,
2021-08-03 11:30:40 AM,-,1627982918383,
2021-08-03 11:30:40 AM,-,1627982918386,
2021-08-03 11:30:40 AM,-,1627982918390,
2021-08-03 11:30:40 AM,-,1627982918393,
2021-08-03 11:30:40 AM,-,1627982918396,
2021-08-03 11:30:40 AM,-,1627982918400,
2021-08-03 11:30:40 AM,-,1627982918403,
2021-08-03 11:30:40 AM,-,1627982918406,
2021-08-03 11:30:40 AM,-,1627982918410,
2021-08-03 11:30:40 AM,-,1627982918413,
2021-08-03 11:30:40 AM,-,1627982918416,
2021-08-03 11:30:40 AM,-,1627982918420,
2021-08-03 11:30:40 AM,-,1627982918423,
2021-08-03 11:30:40 AM,-,1627982918426,
2021-08-03 11:30:40 AM,-,1627982918430,
2021-08-03 11:30:40 AM,-,1627982918433,
2021-08-03 11:30:40 AM,-,1627982918436,
2021-08-03 11:30:40 AM,-,1627982918440,
2021-08-03 11:30:40 AM,-,1627982918443,
2021-08-03 11:30:40 AM,-,1627982918446,
2021-08-03 11:30:40 AM,-,1627982918450,
2021-08-03 11:30:40 AM,-,1627982918453,
2021-08-03 11:30:40 AM,-,1627982918456,
2021-08-03 11:30:40 AM,-,1627982918460,
2021-08-03 11:30:40 AM,-,1627982918463,
2021-08-03 11:30:40 AM,-,1627982918466,
2021-08-03 11:30:40 AM,-,1627982918470,
2021-08-03 11:30:40 AM,-,1627982918473,
2021-08-03 11:30:40 AM,-,1627982918476,
2021-08-03 11:30:40 AM,-,1627982918480,
2021-08-03 11:30:40 AM,-,1627982918483,
2021-08-03 11:30:40 AM,-,1627982918486,
2021-08-03 11:30:40 AM,-,1627982918490,
2021-08-03 11:30:40 AM,-,1627982918493,
2021-08-03 11:30:40 AM,-,1627982918496,
2021-08-03 11:30:40 AM,-,1627982918500,
2021-08-03 11:30:40 AM,-,1627982918503,
2021-08-03 11:30:40 AM,-,1627982918506,
2021-08-03 11:30:40 AM,-,1627982918510,
2021-08-03 11:30:40 AM,-,1627982918513,
2021-08-03 11:30:40 AM,-,1627982918516,
2021-08-03 11:30:40 AM,-,1627982918520,
2021-08-03 11:30:40 AM,-,1627982918523,
2021-08-03 11:30:40 AM,-,1627982918526,
2021-08-03 11:30:40 AM,-,1627982918530,
2021-08-03 11:30:40 AM,-,1627982918533,
2021-08-03 11:30:40 AM,-,1627982918536,
2021-08-03 11:30:40 AM,-,1627982918540,
2021-08-03 11:30:40 AM,-,1627982918543,
2021-08-03 11:30:40 AM,-,1627982918546,
2021-08-03 11:30:40 AM,-,1627982918550,
2021-08-03 11:30:40 AM,-,1627982918553,
2021-08-03 11:30:40 AM,-,1627982918556,
2021-08-03 11:30:40 AM,-,1627982918560,
2021-08-03 11:30:40 AM,-,1627982918563,
2021-08-03 11:30:40 AM,-,1627982918566,
2021-08-03 11:30:40 AM,-,1627982918570,
2021-08-03 11:30:40 AM,-,1627982918573,
2021-08-03 11:30:40 AM,-,1627982918576,
2021-08-03 11:30:40 AM,-,1627982918580,
2021-08-03 11:30:40 AM,-,1627982918583,
2021-08-03 11:30:40 AM,-,1627982918586,
2021-08-03 11:30:40 AM,-,1627982918590,
2021-08-03 11:30:40 AM,-,1627982918593,
2021-08-03 11:30:40 AM,-,1627982918596,
2021-08-03 11:30:40 AM,-,1627982918600,
2021-08-03 11:30:40 AM,-,1627982918603,
2021-08-03 11:30:40 AM,-,1627982918606,
2021-08-03 11:30:40 AM,-,1627982918610,
2021-08-03 11:30:40 AM,-,1627982918613,
2021-08-03 11:30:40 AM,-,1627982918616,
2021-08-03 11:30:40 AM,-,1627982918620,
2021-08-03 11:30:40 AM,-,1627982918623,
2021-08-03 11:30:40 AM,-,1627982918626,
2021-08-03 11:30:40 AM,-,1627982918630,
2021-08-03 11:30:40 AM,-,1627982918633,
2021-08-03 11:30:40 AM,-,1627982918636,
2021-08-03 11:30:40 AM,-,1627982918640,
2021-08-03 11:30:40 AM,-,1627982918643,
2021-08-03 11:30:40 AM,-,1627982918646,
2021-08-03 11:30:40 AM,-,1627982918650,
2021-08-03 11:30:40 AM,-,1627982918653,
2021-08-03 11:30:40 AM,-,1627982918656,
2021-08-03 11:30:40 AM,-,1627982918660,
2021-08-03 11:30:40 AM,-,1627982918663,
2021-08-03 11:30:40 AM,-,1627982918666,
2021-08-03 11:30:40 AM,-,1627982918670,
2021-08-03 11:30:40 AM,-,1627982918673,
2021-08-03 11:30:40 AM,-,1627982918676,
2021-08-03 11:30:40 AM,-,1627982918680,
2021-08-03 11:30:40 AM,-,1627982918683,
2021-08-03 11:30:40 AM,-,1627982918686,
2021-08-03 11:30:40 AM,-,1627982918690,
2021-08-03 11:30:40 AM,-,1627982918693,
2021-08-03 11:30:40 AM,-,1627982918696,
2021-08-03 11:30:40 AM,-,1627982918700,
2021-08-03 11:30:40 AM,-,1627982918703,
2021-08-03 11:30:40 AM,-,1627982918706,
2021-08-03 11:30:40 AM,-,1627982918710,
2021-08-03 11:30:40 AM,-,1627982918713,
2021-08-03 11:30:40 AM,-,1627982918716,
2021-08-03 11:30:40 AM,-,1627982918720,
2021-08-03 11:30:40 AM,-,1627982918723,
2021-08-03 11:30:40 AM,-,1627982918726,
2021-08-03 11:30:40 AM,-,1627982918730,
2021-08-03 11:30:40 AM,-,1627982918733,
2021-08-03 11:30:40 AM,-,1627982918736,
2021-08-03 11:30:40 AM,-,1627982918740,
2021-08-03 11:30:40 AM,-,1627982918743,
2021-08-03 11:30:40 AM,-,1627982918746,
2021-08-03 11:30:40 AM,-,1627982918750,
2021-08-03 11:30:40 AM,-,1627982918753,
2021-08-03 11:30:40 AM,-,1627982918756,
2021-08-03 11:30:40 AM,-,1627982918760,
2021-08-03 11:30:40 AM,-,1627982918763,
2021-08-03 11:30:40 AM,-,1627982918766,
2021-08-03 11:30:40 AM,-,1627982918770,
2021-08-03 11:30:40 AM,-,1627982918773,
2021-08-03 11:30:40 AM,-,1627982918776,
2021-08-03 11:30:40 AM,-,1627982918780,
2021-08-03 11:30:40 AM,-,1627982918783,
2021-08-03 11:30:40 AM,-,1627982918786,
2021-08-03 11:30:40 AM,-,1627982918790,
2021-08-03 11:30:40 AM,-,1627982918793,
2021-08-03 11:30:40 AM,-,1627982918796,
2021-08-03 11:30:40 AM,-,1627982918800,
2021-08-03 11:30:40 AM,-,1627982918803,
2021-08-03 11:30:40 AM,-,1627982918806,
2021-08-03 11:30:40 AM,-,1627982918810,
2021-08-03 11:30:40 AM,-,1627982918813,
2021-08-03 11:30:40 AM,-,1627982918816,
2021-08-03 11:30:40 AM,-,1627982918820,
2021-08-03 11:30:40 AM,-,1627982918823,
2021-08-03 11:30:40 AM,-,1627982918826,
2021-08-03 11:30:40 AM,-,1627982918830,
2021-08-03 11:30:40 AM,-,1627982918833,
2021-08-03 11:30:40 AM,-,1627982918836,
2021-08-03 11:30:40 AM,-,1627982918840,
2021-08-03 11:30:40 AM,-,1627982918843,
2021-08-03 11:30:40 AM,-,1627982918846,
2021-08-03 11:30:40 AM,-,1627982918850,
2021-08-03 11:30:40 AM,-,1627982918853,
2021-08-03 11:30:40 AM,-,1627982918856,
2021-08-03 11:30:40 AM,-,1627982918860,
2021-08-03 11:30:40 AM,-,1627982918863,
2021-08-03 11:30:40 AM,-,1627982918866,
2021-08-03 11:30:40 AM,-,1627982918870,
2021-08-03 11:30:40 AM,-,1627982918873,
2021-08-03 11:30:40 AM,-,1627982918876,
2021-08-03 11:30:40 AM,-,1627982918880,
2021-08-03 11:30:40 AM,-,1627982918883,
2021-08-03 11:30:40 AM,-,1627982918886,
2021-08-03 11:30:40 AM,-,1627982918890,
2021-08-03 11:30:40 AM,-,1627982918893,
2021-08-03 11:30:40 AM,-,1627982918896,
2021-08-03 11:30:40 AM,-,1627982918900,
2021-08-03 11:30:40 AM,-,1627982918903,
2021-08-03 11:30:40 AM,-,1627982918906,
2021-08-03 11:30:40 AM,-,1627982918910,
2021-08-03 11:30:40 AM,-,1627982918913,
2021-08-03 11:30:40 AM,-,1627982918916,
2021-08-03 11:30:40 AM,-,1627982918920,
2021-08-03 11:30:40 AM,-,1627982918923,
2021-08-03 11:30:40 AM,-,1627982918926,
2021-08-03 11:30:40 AM,-,1627982918930,
2021-08-03 11:30:40 AM,-,1627982918933,
2021-08-03 11:30:40 AM,-,1627982918936,
2021-08-03 11:30:40 AM,-,1627982918940,
2021-08-03 11:30:40 AM,-,1627982918943,
2021-08-03 11:30:40 AM,-,1627982918946,
2021-08-03 11:30:40 AM,-,1627982918950,
2021-08-03 11:30:40 AM,-,1627982918953,
2021-08-03 11:30:40 AM,-,1627982918956,
2021-08-03 11:30:40 AM,-,1627982918960,
2021-08-03 11:30:40 AM,-,1627982918963,
2021-08-03 11:30:40 AM,-,1627982918966,
2021-08-03 11:30:40 AM,-,1627982918970,
2021-08-03 11:30:40 AM,-,1627982918973,
2021-08-03 11:30:40 AM,-,1627982918976,
2021-08-03 11:30:40 AM,-,1627982918980,
2021-08-03 11:30:40 AM,-,1627982918983,
2021-08-03 11:30:40 AM,-,1627982918986,
2021-08-03 11:30:40 AM,-,1627982918990,
2021-08-03 11:30:40 AM,-,1627982918993,
2021-08-03 11:30:40 AM,-,1627982918996,
2021-08-03 11:30:41 AM,-,1627982919000,
2021-08-03 11:30:41 AM,-,1627982919003,
2021-08-03 11:30:41 AM,-,1627982919006,
2021-08-03 11:30:41 AM,-,1627982919010,
2021-08-03 11:30:41 AM,-,1627982919013,
2021-08-03 11:30:41 AM,-,1627982919016,
2021-08-03 11:30:41 AM,-,1627982919020,
2021-08-03 11:30:41 AM,-,1627982919023,
2021-08-03 11:30:41 AM,-,1627982919026,
2021-08-03 11:30:41 AM,-,1627982919030,
2021-08-03 11:30:41 AM,-,1627982919033,
2021-08-03 11:30:41 AM,-,1627982919036,
2021-08-03 11:30:41 AM,-,1627982919040,
2021-08-03 11:30:41 AM,-,1627982919043,
2021-08-03 11:30:41 AM,-,1627982919046,
2021-08-03 11:30:41 AM,-,1627982919050,
2021-08-03 11:30:41 AM,-,1627982919053,
2021-08-03 11:30:41 AM,-,1627982919056,
2021-08-03 11:30:41 AM,-,1627982919060,
2021-08-03 11:30:41 AM,-,1627982919063,
2021-08-03 11:30:41 AM,-,1627982919066,
2021-08-03 11:30:41 AM,-,1627982919070,
2021-08-03 11:30:41 AM,-,1627982919073,
2021-08-03 11:30:41 AM,-,1627982919076,
2021-08-03 11:30:41 AM,-,1627982919080,
2021-08-03 11:30:41 AM,-,1627982919083,
2021-08-03 11:30:41 AM,-,1627982919086,
2021-08-03 11:30:41 AM,-,1627982919090,
2021-08-03 11:30:41 AM,-,1627982919093,
2021-08-03 11:30:41 AM,-,1627982919096,
2021-08-03 11:30:41 AM,-,1627982919100,
2021-08-03 11:30:41 AM,-,1627982919103,
2021-08-03 11:30:41 AM,-,1627982919106,
2021-08-03 11:30:41 AM,-,1627982919110,
2021-08-03 11:30:41 AM,-,1627982919113,
2021-08-03 11:30:41 AM,-,1627982919116,
2021-08-03 11:30:41 AM,-,1627982919120,
2021-08-03 11:30:41 AM,-,1627982919123,
2021-08-03 11:30:41 AM,-,1627982919126,
2021-08-03 11:30:41 AM,-,1627982919130,
2021-08-03 11:30:41 AM,-,1627982919133,
2021-08-03 11:30:41 AM,-,1627982919136,
2021-08-03 11:30:41 AM,-,1627982919140,
2021-08-03 11:30:41 AM,-,1627982919143,
2021-08-03 11:30:41 AM,-,1627982919146,
2021-08-03 11:30:41 AM,-,1627982919150,
2021-08-03 11:30:41 AM,-,1627982919153,
2021-08-03 11:30:41 AM,-,1627982919156,
2021-08-03 11:30:41 AM,-,1627982919160,
2021-08-03 11:30:41 AM,-,1627982919163,
2021-08-03 11:30:41 AM,-,1627982919166,
2021-08-03 11:30:41 AM,-,1627982919170,
2021-08-03 11:30:41 AM,-,1627982919173,
2021-08-03 11:30:41 AM,-,1627982919176,
2021-08-03 11:30:41 AM,-,1627982919180,
2021-08-03 11:30:41 AM,-,1627982919183,
2021-08-03 11:30:41 AM,-,1627982919186,
2021-08-03 11:30:41 AM,-,1627982919190,
2021-08-03 11:30:41 AM,-,1627982919193,
2021-08-03 11:30:41 AM,-,1627982919196,
2021-08-03 11:30:41 AM,-,1627982919200,
2021-08-03 11:30:41 AM,-,1627982919203,
2021-08-03 11:30:41 AM,-,1627982919206,
2021-08-03 11:30:41 AM,-,1627982919210,
2021-08-03 11:30:41 AM,-,1627982919213,
2021-08-03 11:30:41 AM,-,1627982919216,
2021-08-03 11:30:41 AM,-,1627982919220,
2021-08-03 11:30:41 AM,-,1627982919223,
2021-08-03 11:30:41 AM,-,1627982919226,
2021-08-03 11:30:41 AM,-,1627982919230,
2021-08-03 11:30:41 AM,-,1627982919233,
2021-08-03 11:30:41 AM,-,1627982919236,
2021-08-03 11:30:41 AM,-,1627982919240,
2021-08-03 11:30:41 AM,-,1627982919243,
2021-08-03 11:30:41 AM,-,1627982919246,
2021-08-03 11:30:41 AM,-,1627982919250,
2021-08-03 11:30:41 AM,-,1627982919253,
2021-08-03 11:30:41 AM,-,1627982919256,
2021-08-03 11:30:41 AM,-,1627982919260,
2021-08-03 11:30:41 AM,-,1627982919263,
2021-08-03 11:30:41 AM,-,1627982919266,
2021-08-03 11:30:41 AM,-,1627982919270,
2021-08-03 11:30:41 AM,-,1627982919273,
2021-08-03 11:30:41 AM,-,1627982919276,
2021-08-03 11:30:41 AM,-,1627982919280,
2021-08-03 11:30:41 AM,-,1627982919283,
2021-08-03 11:30:41 AM,-,1627982919286,
2021-08-03 11:30:41 AM,-,1627982919290,
2021-08-03 11:30:41 AM,-,1627982919293,
2021-08-03 11:30:41 AM,-,1627982919296,
2021-08-03 11:30:41 AM,-,1627982919300,
2021-08-03 11:30:41 AM,-,1627982919303,
2021-08-03 11:30:41 AM,-,1627982919306,
2021-08-03 11:30:41 AM,-,1627982919310,
2021-08-03 11:30:41 AM,-,1627982919313,
2021-08-03 11:30:41 AM,-,1627982919316,
2021-08-03 11:30:41 AM,-,1627982919320,
2021-08-03 11:30:41 AM,-,1627982919323,
2021-08-03 11:30:41 AM,-,1627982919326,
2021-08-03 11:30:41 AM,-,1627982919330,
2021-08-03 11:30:41 AM,-,1627982919333,
2021-08-03 11:30:41 AM,-,1627982919336,
2021-08-03 11:30:41 AM,-,1627982919340,
2021-08-03 11:30:41 AM,-,1627982919343,
2021-08-03 11:30:41 AM,-,1627982919346,
2021-08-03 11:30:41 AM,-,1627982919350,
2021-08-03 11:30:41 AM,-,1627982919353,
2021-08-03 11:30:41 AM,-,1627982919356,
2021-08-03 11:30:41 AM,-,1627982919360,
2021-08-03 11:30:41 AM,-,1627982919363,
2021-08-03 11:30:41 AM,-,1627982919366,
2021-08-03 11:30:41 AM,-,1627982919370,
2021-08-03 11:30:41 AM,-,1627982919373,
2021-08-03 11:30:41 AM,-,1627982919376,
2021-08-03 11:30:41 AM,-,1627982919380,
2021-08-03 11:30:41 AM,-,1627982919383,
2021-08-03 11:30:41 AM,-,1627982919386,
2021-08-03 11:30:41 AM,-,1627982919390,
2021-08-03 11:30:41 AM,-,1627982919393,
2021-08-03 11:30:41 AM,-,1627982919396,
2021-08-03 11:30:41 AM,-,1627982919400,
2021-08-03 11:30:41 AM,-,1627982919403,
2021-08-03 11:30:41 AM,-,1627982919406,
2021-08-03 11:30:41 AM,-,1627982919410,
2021-08-03 11:30:41 AM,-,1627982919413,
2021-08-03 11:30:41 AM,-,1627982919416,
2021-08-03 11:30:41 AM,-,1627982919420,
2021-08-03 11:30:41 AM,-,1627982919423,
2021-08-03 11:30:41 AM,-,1627982919426,
2021-08-03 11:30:41 AM,-,1627982919430,
2021-08-03 11:30:41 AM,-,1627982919433,
2021-08-03 11:30:41 AM,-,1627982919436,
2021-08-03 11:30:41 AM,-,1627982919440,
2021-08-03 11:30:41 AM,-,1627982919443,
2021-08-03 11:30:41 AM,-,1627982919446,
2021-08-03 11:30:41 AM,-,1627982919450,
2021-08-03 11:30:41 AM,-,1627982919453,
2021-08-03 11:30:41 AM,-,1627982919456,
2021-08-03 11:30:41 AM,-,1627982919460,
2021-08-03 11:30:41 AM,-,1627982919463,
2021-08-03 11:30:41 AM,-,1627982919466,
2021-08-03 11:30:41 AM,-,1627982919470,
2021-08-03 11:30:41 AM,-,1627982919473,
2021-08-03 11:30:41 AM,-,1627982919476,
2021-08-03 11:30:41 AM,-,1627982919480,
2021-08-03 11:30:41 AM,-,1627982919483,
2021-08-03 11:30:41 AM,-,1627982919486,
2021-08-03 11:30:41 AM,-,1627982919490,
2021-08-03 11:30:41 AM,-,1627982919493,
2021-08-03 11:30:41 AM,-,1627982919496,
2021-08-03 11:30:41 AM,-,1627982919500,
2021-08-03 11:30:41 AM,-,1627982919503,
2021-08-03 11:30:41 AM,-,1627982919506,
2021-08-03 11:30:41 AM,-,1627982919510,
2021-08-03 11:30:41 AM,-,1627982919513,
2021-08-03 11:30:41 AM,-,1627982919516,
2021-08-03 11:30:41 AM,-,1627982919520,
2021-08-03 11:30:41 AM,-,1627982919523,
2021-08-03 11:30:41 AM,-,1627982919526,
2021-08-03 11:30:41 AM,-,1627982919530,
2021-08-03 11:30:41 AM,-,1627982919533,
2021-08-03 11:30:41 AM,-,1627982919536,
2021-08-03 11:30:41 AM,-,1627982919540,
2021-08-03 11:30:41 AM,-,1627982919543,
2021-08-03 11:30:41 AM,-,1627982919546,
2021-08-03 11:30:41 AM,-,1627982919550,
2021-08-03 11:30:41 AM,-,1627982919553,
2021-08-03 11:30:41 AM,-,1627982919556,
2021-08-03 11:30:41 AM,-,1627982919560,
2021-08-03 11:30:41 AM,-,1627982919563,
2021-08-03 11:30:41 AM,-,1627982919566,
2021-08-03 11:30:41 AM,-,1627982919570,
2021-08-03 11:30:41 AM,-,1627982919573,
2021-08-03 11:30:41 AM,-,1627982919576,
2021-08-03 11:30:41 AM,-,1627982919580,
2021-08-03 11:30:41 AM,-,1627982919583,
2021-08-03 11:30:41 AM,-,1627982919586,
2021-08-03 11:30:41 AM,-,1627982919590,
2021-08-03 11:30:41 AM,-,1627982919593,
2021-08-03 11:30:41 AM,-,1627982919596,
2021-08-03 11:30:41 AM,-,1627982919600,
2021-08-03 11:30:41 AM,-,1627982919603,
2021-08-03 11:30:41 AM,-,1627982919606,
2021-08-03 11:30:41 AM,-,1627982919610,
2021-08-03 11:30:41 AM,-,1627982919613,
2021-08-03 11:30:41 AM,-,1627982919616,
2021-08-03 11:30:41 AM,-,1627982919620,
2021-08-03 11:30:41 AM,-,1627982919623,
2021-08-03 11:30:41 AM,-,1627982919626,
2021-08-03 11:30:41 AM,-,1627982919630,
2021-08-03 11:30:41 AM,-,1627982919633,
2021-08-03 11:30:41 AM,-,1627982919636,
2021-08-03 11:30:41 AM,-,1627982919640,
2021-08-03 11:30:41 AM,-,1627982919643,
2021-08-03 11:30:41 AM,-,1627982919646,
2021-08-03 11:30:41 AM,-,1627982919650,
2021-08-03 11:30:41 AM,-,1627982919653,
2021-08-03 11:30:41 AM,-,1627982919656,
2021-08-03 11:30:41 AM,-,1627982919660,
2021-08-03 11:30:41 AM,-,1627982919663,
2021-08-03 11:30:41 AM,-,1627982919666,
2021-08-03 11:30:41 AM,-,1627982919670,
2021-08-03 11:30:41 AM,-,1627982919673,
2021-08-03 11:30:41 AM,-,1627982919676,
2021-08-03 11:30:41 AM,-,1627982919680,
2021-08-03 11:30:41 AM,-,1627982919683,
2021-08-03 11:30:41 AM,-,1627982919686,
2021-08-03 11:30:41 AM,-,1627982919690,
2021-08-03 11:30:41 AM,-,1627982919693,
2021-08-03 11:30:41 AM,-,1627982919696,
2021-08-03 11:30:41 AM,-,1627982919700,
2021-08-03 11:30:41 AM,-,1627982919703,
2021-08-03 11:30:41 AM,-,1627982919706,
2021-08-03 11:30:41 AM,-,1627982919710,
2021-08-03 11:30:41 AM,-,1627982919713,
2021-08-03 11:30:41 AM,-,1627982919716,
2021-08-03 11:30:41 AM,-,1627982919720,
2021-08-03 11:30:41 AM,-,1627982919723,
2021-08-03 11:30:41 AM,-,1627982919726,
2021-08-03 11:30:41 AM,-,1627982919730,
2021-08-03 11:30:41 AM,-,1627982919733,
2021-08-03 11:30:41 AM,-,1627982919736,
2021-08-03 11:30:41 AM,-,1627982919740,
2021-08-03 11:30:41 AM,-,1627982919743,
2021-08-03 11:30:41 AM,-,1627982919746,
2021-08-03 11:30:41 AM,-,1627982919750,
2021-08-03 11:30:41 AM,-,1627982919753,
2021-08-03 11:30:41 AM,-,1627982919756,
2021-08-03 11:30:41 AM,-,1627982919760,
2021-08-03 11:30:41 AM,-,1627982919763,
2021-08-03 11:30:41 AM,-,1627982919766,
2021-08-03 11:30:41 AM,-,1627982919770,
2021-08-03 11:30:41 AM,-,1627982919773,
2021-08-03 11:30:41 AM,-,1627982919776,
2021-08-03 11:30:41 AM,-,1627982919780,
2021-08-03 11:30:41 AM,-,1627982919783,
2021-08-03 11:30:41 AM,-,1627982919786,
2021-08-03 11:30:41 AM,-,1627982919790,
2021-08-03 11:30:41 AM,-,1627982919793,
2021-08-03 11:30:41 AM,-,1627982919796,
2021-08-03 11:30:41 AM,-,1627982919800,
2021-08-03 11:30:41 AM,-,1627982919803,
2021-08-03 11:30:41 AM,-,1627982919806,
2021-08-03 11:30:41 AM,-,1627982919810,
2021-08-03 11:30:41 AM,-,1627982919813,
2021-08-03 11:30:41 AM,-,1627982919816,
2021-08-03 11:30:41 AM,-,1627982919820,
2021-08-03 11:30:41 AM,-,1627982919823,
2021-08-03 11:30:41 AM,-,1627982919826,
2021-08-03 11:30:41 AM,-,1627982919830,
2021-08-03 11:30:41 AM,-,1627982919833,
2021-08-03 11:30:41 AM,-,1627982919836,
2021-08-03 11:30:41 AM,-,1627982919840,
2021-08-03 11:30:41 AM,-,1627982919843,
2021-08-03 11:30:41 AM,-,1627982919846,
2021-08-03 11:30:41 AM,-,1627982919850,
2021-08-03 11:30:41 AM,-,1627982919853,
2021-08-03 11:30:41 AM,-,1627982919856,
2021-08-03 11:30:41 AM,-,1627982919860,
2021-08-03 11:30:41 AM,-,1627982919863,
2021-08-03 11:30:41 AM,-,1627982919866,
2021-08-03 11:30:41 AM,-,1627982919870,
2021-08-03 11:30:41 AM,-,1627982919873,
2021-08-03 11:30:41 AM,-,1627982919876,
2021-08-03 11:30:41 AM,-,1627982919880,
2021-08-03 11:30:41 AM,-,1627982919883,
2021-08-03 11:30:41 AM,-,1627982919886,
2021-08-03 11:30:41 AM,-,1627982919890,
2021-08-03 11:30:41 AM,-,1627982919893,
2021-08-03 11:30:41 AM,-,1627982919896,
2021-08-03 11:30:41 AM,-,1627982919900,
2021-08-03 11:30:41 AM,-,1627982919903,
2021-08-03 11:30:41 AM,-,1627982919906,
2021-08-03 11:30:41 AM,-,1627982919910,
2021-08-03 11:30:41 AM,-,1627982919913,
2021-08-03 11:30:41 AM,-,1627982919916,
2021-08-03 11:30:41 AM,-,1627982919920,
2021-08-03 11:30:41 AM,-,1627982919923,
2021-08-03 11:30:41 AM,-,1627982919926,
2021-08-03 11:30:41 AM,-,1627982919930,
2021-08-03 11:30:41 AM,-,1627982919933,
2021-08-03 11:30:41 AM,-,1627982919936,
2021-08-03 11:30:41 AM,-,1627982919940,
2021-08-03 11:30:41 AM,-,1627982919943,
2021-08-03 11:30:41 AM,-,1627982919946,
2021-08-03 11:30:41 AM,-,1627982919950,
2021-08-03 11:30:41 AM,-,1627982919953,
2021-08-03 11:30:41 AM,-,1627982919956,
2021-08-03 11:30:41 AM,-,1627982919960,
2021-08-03 11:30:41 AM,-,1627982919963,
2021-08-03 11:30:41 AM,-,1627982919966,
2021-08-03 11:30:41 AM,-,1627982919970,
2021-08-03 11:30:41 AM,-,1627982919973,
2021-08-03 11:30:41 AM,-,1627982919976,
2021-08-03 11:30:41 AM,-,1627982919980,
2021-08-03 11:30:41 AM,-,1627982919983,
2021-08-03 11:30:41 AM,-,1627982919986,
2021-08-03 11:30:41 AM,-,1627982919990,
2021-08-03 11:30:41 AM,-,1627982919993,
2021-08-03 11:30:41 AM,-,1627982919996,
2021-08-03 11:30:42 AM,-,1627982920000,
2021-08-03 11:30:42 AM,-,1627982920003,
2021-08-03 11:30:42 AM,-,1627982920006,
2021-08-03 11:30:42 AM,-,1627982920010,
2021-08-03 11:30:42 AM,-,1627982920013,
2021-08-03 11:30:42 AM,-,1627982920016,
2021-08-03 11:30:42 AM,-,1627982920020,
2021-08-03 11:30:42 AM,-,1627982920023,
2021-08-03 11:30:42 AM,-,1627982920026,
2021-08-03 11:30:42 AM,-,1627982920030,
2021-08-03 11:30:42 AM,-,1627982920033,
2021-08-03 11:30:42 AM,-,1627982920036,
2021-08-03 11:30:42 AM,-,1627982920040,
2021-08-03 11:30:42 AM,-,1627982920043,
2021-08-03 11:30:42 AM,-,1627982920046,
2021-08-03 11:30:42 AM,-,1627982920050,
2021-08-03 11:30:42 AM,-,1627982920053,
2021-08-03 11:30:42 AM,-,1627982920056,
2021-08-03 11:30:42 AM,-,1627982920060,
2021-08-03 11:30:42 AM,-,1627982920063,
2021-08-03 11:30:42 AM,-,1627982920066,
2021-08-03 11:30:42 AM,-,1627982920070,
2021-08-03 11:30:42 AM,-,1627982920073,
2021-08-03 11:30:42 AM,-,1627982920076,
2021-08-03 11:30:42 AM,-,1627982920080,
2021-08-03 11:30:42 AM,-,1627982920083,
2021-08-03 11:30:42 AM,-,1627982920086,
2021-08-03 11:30:42 AM,-,1627982920090,
2021-08-03 11:30:42 AM,-,1627982920093,
2021-08-03 11:30:42 AM,-,1627982920096,
2021-08-03 11:30:42 AM,-,1627982920100,
2021-08-03 11:30:42 AM,-,1627982920103,
2021-08-03 11:30:42 AM,-,1627982920106,
2021-08-03 11:30:42 AM,-,1627982920110,
2021-08-03 11:30:42 AM,-,1627982920113,
2021-08-03 11:30:42 AM,-,1627982920116,
2021-08-03 11:30:42 AM,-,1627982920120,
2021-08-03 11:30:42 AM,-,1627982920123,
2021-08-03 11:30:42 AM,-,1627982920126,
2021-08-03 11:30:42 AM,-,1627982920130,
2021-08-03 11:30:42 AM,-,1627982920133,
2021-08-03 11:30:42 AM,-,1627982920136,
2021-08-03 11:30:42 AM,-,1627982920140,
2021-08-03 11:30:42 AM,-,1627982920143,
2021-08-03 11:30:42 AM,-,1627982920146,
2021-08-03 11:30:42 AM,-,1627982920150,
2021-08-03 11:30:42 AM,-,1627982920153,
2021-08-03 11:30:42 AM,-,1627982920156,
2021-08-03 11:30:42 AM,-,1627982920160,
2021-08-03 11:30:42 AM,-,1627982920163,
2021-08-03 11:30:42 AM,-,1627982920166,
2021-08-03 11:30:42 AM,-,1627982920170,
2021-08-03 11:30:42 AM,-,1627982920173,
2021-08-03 11:30:42 AM,-,1627982920176,
2021-08-03 11:30:42 AM,-,1627982920180,
2021-08-03 11:30:42 AM,-,1627982920183,
2021-08-03 11:30:42 AM,-,1627982920186,
2021-08-03 11:30:42 AM,-,1627982920190,
2021-08-03 11:30:42 AM,-,1627982920193,
2021-08-03 11:30:42 AM,-,1627982920196,
2021-08-03 11:30:42 AM,-,1627982920200,
2021-08-03 11:30:42 AM,-,1627982920203,
2021-08-03 11:30:42 AM,-,1627982920206,
2021-08-03 11:30:42 AM,-,1627982920210,
2021-08-03 11:30:42 AM,-,1627982920213,
2021-08-03 11:30:42 AM,-,1627982920216,
2021-08-03 11:30:42 AM,-,1627982920220,
2021-08-03 11:30:42 AM,-,1627982920223,
2021-08-03 11:30:42 AM,-,1627982920226,
2021-08-03 11:30:42 AM,-,1627982920230,
2021-08-03 11:30:42 AM,-,1627982920233,
2021-08-03 11:30:42 AM,-,1627982920236,
2021-08-03 11:30:42 AM,-,1627982920240,
2021-08-03 11:30:42 AM,-,1627982920243,
2021-08-03 11:30:42 AM,-,1627982920246,
2021-08-03 11:30:42 AM,-,1627982920250,
2021-08-03 11:30:42 AM,-,1627982920253,
2021-08-03 11:30:42 AM,-,1627982920256,
2021-08-03 11:30:42 AM,-,1627982920260,
2021-08-03 11:30:42 AM,-,1627982920263,
2021-08-03 11:30:42 AM,-,1627982920266,
2021-08-03 11:30:42 AM,-,1627982920270,
2021-08-03 11:30:42 AM,-,1627982920273,
2021-08-03 11:30:42 AM,-,1627982920276,
2021-08-03 11:30:42 AM,-,1627982920280,
2021-08-03 11:30:42 AM,-,1627982920283,
2021-08-03 11:30:42 AM,-,1627982920286,
2021-08-03 11:30:42 AM,-,1627982920290,
2021-08-03 11:30:42 AM,-,1627982920293,
2021-08-03 11:30:42 AM,-,1627982920296,
2021-08-03 11:30:42 AM,-,1627982920300,
2021-08-03 11:30:42 AM,-,1627982920303,
2021-08-03 11:30:42 AM,-,1627982920306,
2021-08-03 11:30:42 AM,-,1627982920310,
2021-08-03 11:30:42 AM,-,1627982920313,
2021-08-03 11:30:42 AM,-,1627982920316,
2021-08-03 11:30:42 AM,-,1627982920320,
2021-08-03 11:30:42 AM,-,1627982920323,
2021-08-03 11:30:42 AM,-,1627982920326,
2021-08-03 11:30:42 AM,-,1627982920330,
2021-08-03 11:30:42 AM,-,1627982920333,
2021-08-03 11:30:42 AM,-,1627982920336,
2021-08-03 11:30:42 AM,-,1627982920340,
2021-08-03 11:30:42 AM,-,1627982920343,
2021-08-03 11:30:42 AM,-,1627982920346,
2021-08-03 11:30:42 AM,-,1627982920350,
2021-08-03 11:30:42 AM,-,1627982920353,
2021-08-03 11:30:42 AM,-,1627982920356,
2021-08-03 11:30:42 AM,-,1627982920360,
2021-08-03 11:30:42 AM,-,1627982920363,
2021-08-03 11:30:42 AM,-,1627982920366,
2021-08-03 11:30:42 AM,-,1627982920370,
2021-08-03 11:30:42 AM,-,1627982920373,
2021-08-03 11:30:42 AM,-,1627982920376,
2021-08-03 11:30:42 AM,-,1627982920380,
2021-08-03 11:30:42 AM,-,1627982920383,
2021-08-03 11:30:42 AM,-,1627982920386,
2021-08-03 11:30:42 AM,-,1627982920390,
2021-08-03 11:30:42 AM,-,1627982920393,
2021-08-03 11:30:42 AM,-,1627982920396,
2021-08-03 11:30:42 AM,-,1627982920400,
2021-08-03 11:30:42 AM,-,1627982920403,
2021-08-03 11:30:42 AM,-,1627982920406,
2021-08-03 11:30:42 AM,-,1627982920410,
2021-08-03 11:30:42 AM,-,1627982920413,
2021-08-03 11:30:42 AM,-,1627982920416,
2021-08-03 11:30:42 AM,-,1627982920420,
2021-08-03 11:30:42 AM,-,1627982920423,
2021-08-03 11:30:42 AM,-,1627982920426,
2021-08-03 11:30:42 AM,-,1627982920430,
2021-08-03 11:30:42 AM,-,1627982920433,
2021-08-03 11:30:42 AM,-,1627982920436,
2021-08-03 11:30:42 AM,-,1627982920440,
2021-08-03 11:30:42 AM,-,1627982920443,
2021-08-03 11:30:42 AM,-,1627982920446,
2021-08-03 11:30:42 AM,-,1627982920450,
2021-08-03 11:30:42 AM,-,1627982920453,
2021-08-03 11:30:42 AM,-,1627982920456,
2021-08-03 11:30:42 AM,-,1627982920460,
2021-08-03 11:30:42 AM,-,1627982920463,
2021-08-03 11:30:42 AM,-,1627982920466,
2021-08-03 11:30:42 AM,-,1627982920470,
2021-08-03 11:30:42 AM,-,1627982920473,
2021-08-03 11:30:42 AM,-,1627982920476,
2021-08-03 11:30:42 AM,-,1627982920480,
2021-08-03 11:30:42 AM,-,1627982920483,
2021-08-03 11:30:42 AM,-,1627982920486,
2021-08-03 11:30:42 AM,-,1627982920490,
2021-08-03 11:30:42 AM,-,1627982920493,
2021-08-03 11:30:42 AM,-,1627982920496,
2021-08-03 11:30:42 AM,-,1627982920500,
2021-08-03 11:30:42 AM,-,1627982920503,
2021-08-03 11:30:42 AM,-,1627982920506,
2021-08-03 11:30:42 AM,-,1627982920510,
2021-08-03 11:30:42 AM,-,1627982920513,
2021-08-03 11:30:42 AM,-,1627982920516,
2021-08-03 11:30:42 AM,-,1627982920520,
2021-08-03 11:30:42 AM,-,1627982920523,
2021-08-03 11:30:42 AM,-,1627982920526,
2021-08-03 11:30:42 AM,-,1627982920530,
2021-08-03 11:30:42 AM,-,1627982920533,
2021-08-03 11:30:42 AM,-,1627982920536,
2021-08-03 11:30:42 AM,-,1627982920540,
2021-08-03 11:30:42 AM,-,1627982920543,
2021-08-03 11:30:42 AM,-,1627982920546,
2021-08-03 11:30:42 AM,-,1627982920550,
2021-08-03 11:30:42 AM,-,1627982920553,
2021-08-03 11:30:42 AM,-,1627982920556,
2021-08-03 11:30:42 AM,-,1627982920560,
2021-08-03 11:30:42 AM,-,1627982920563,
2021-08-03 11:30:42 AM,-,1627982920566,
2021-08-03 11:30:42 AM,-,1627982920570,
2021-08-03 11:30:42 AM,-,1627982920573,
2021-08-03 11:30:42 AM,-,1627982920576,
2021-08-03 11:30:42 AM,-,1627982920580,
2021-08-03 11:30:42 AM,-,1627982920583,
2021-08-03 11:30:42 AM,-,1627982920586,
2021-08-03 11:30:42 AM,-,1627982920590,
2021-08-03 11:30:42 AM,-,1627982920593,
2021-08-03 11:30:42 AM,-,1627982920596,
2021-08-03 11:30:42 AM,-,1627982920600,
2021-08-03 11:30:42 AM,-,1627982920603,
2021-08-03 11:30:42 AM,-,1627982920606,
2021-08-03 11:30:42 AM,-,1627982920610,
2021-08-03 11:30:42 AM,-,1627982920613,
2021-08-03 11:30:42 AM,-,1627982920616,
2021-08-03 11:30:42 AM,-,1627982920620,
2021-08-03 11:30:42 AM,-,1627982920623,
2021-08-03 11:30:42 AM,-,1627982920626,
2021-08-03 11:30:42 AM,-,1627982920630,
2021-08-03 11:30:42 AM,-,1627982920633,
2021-08-03 11:30:42 AM,-,1627982920636,
2021-08-03 11:30:42 AM,-,1627982920640,
2021-08-03 11:30:42 AM,-,1627982920643,
2021-08-03 11:30:42 AM,-,1627982920646,
2021-08-03 11:30:42 AM,-,1627982920650,
2021-08-03 11:30:42 AM,-,1627982920653,
2021-08-03 11:30:42 AM,-,1627982920656,
2021-08-03 11:30:42 AM,-,1627982920660,
2021-08-03 11:30:42 AM,-,1627982920663,
2021-08-03 11:30:42 AM,-,1627982920666,
2021-08-03 11:30:42 AM,-,1627982920670,
2021-08-03 11:30:42 AM,-,1627982920673,
2021-08-03 11:30:42 AM,-,1627982920676,
2021-08-03 11:30:42 AM,-,1627982920680,
2021-08-03 11:30:42 AM,-,1627982920683,
2021-08-03 11:30:42 AM,-,1627982920686,
2021-08-03 11:30:42 AM,-,1627982920690,
2021-08-03 11:30:42 AM,-,1627982920693,
2021-08-03 11:30:42 AM,-,1627982920696,
2021-08-03 11:30:42 AM,-,1627982920700,
2021-08-03 11:30:42 AM,-,1627982920703,
2021-08-03 11:30:42 AM,-,1627982920706,
2021-08-03 11:30:42 AM,-,1627982920710,
2021-08-03 11:30:42 AM,-,1627982920713,
2021-08-03 11:30:42 AM,-,1627982920716,
2021-08-03 11:30:42 AM,-,1627982920720,
2021-08-03 11:30:42 AM,-,1627982920723,
2021-08-03 11:30:42 AM,-,1627982920726,
2021-08-03 11:30:42 AM,-,1627982920730,
2021-08-03 11:30:42 AM,-,1627982920733,
2021-08-03 11:30:42 AM,-,1627982920736,
2021-08-03 11:30:42 AM,-,1627982920740,
2021-08-03 11:30:42 AM,-,1627982920743,
2021-08-03 11:30:42 AM,-,1627982920746,
2021-08-03 11:30:42 AM,-,1627982920750,
2021-08-03 11:30:42 AM,-,1627982920753,
2021-08-03 11:30:42 AM,-,1627982920756,
2021-08-03 11:30:42 AM,-,1627982920760,
2021-08-03 11:30:42 AM,-,1627982920763,
2021-08-03 11:30:42 AM,-,1627982920766,
2021-08-03 11:30:42 AM,-,1627982920770,
2021-08-03 11:30:42 AM,-,1627982920773,
2021-08-03 11:30:42 AM,-,1627982920776,
2021-08-03 11:30:42 AM,-,1627982920780,
2021-08-03 11:30:42 AM,-,1627982920783,
2021-08-03 11:30:42 AM,-,1627982920786,
2021-08-03 11:30:42 AM,-,1627982920790,
2021-08-03 11:30:42 AM,-,1627982920793,
2021-08-03 11:30:42 AM,-,1627982920796,
2021-08-03 11:30:42 AM,-,1627982920800,
2021-08-03 11:30:42 AM,-,1627982920803,
2021-08-03 11:30:42 AM,-,1627982920806,
2021-08-03 11:30:42 AM,-,1627982920810,
2021-08-03 11:30:42 AM,-,1627982920813,
2021-08-03 11:30:42 AM,-,1627982920816,
2021-08-03 11:30:42 AM,-,1627982920820,
2021-08-03 11:30:42 AM,-,1627982920823,
2021-08-03 11:30:42 AM,-,1627982920826,
2021-08-03 11:30:42 AM,-,1627982920830,
2021-08-03 11:30:42 AM,-,1627982920833,
2021-08-03 11:30:42 AM,-,1627982920836,
2021-08-03 11:30:42 AM,-,1627982920840,
2021-08-03 11:30:42 AM,-,1627982920843,
2021-08-03 11:30:42 AM,-,1627982920846,
2021-08-03 11:30:42 AM,-,1627982920850,
2021-08-03 11:30:42 AM,-,1627982920853,
2021-08-03 11:30:42 AM,-,1627982920856,
2021-08-03 11:30:42 AM,-,1627982920860,
2021-08-03 11:30:42 AM,-,1627982920863,
2021-08-03 11:30:42 AM,-,1627982920866,
2021-08-03 11:30:42 AM,-,1627982920870,
2021-08-03 11:30:42 AM,-,1627982920873,
2021-08-03 11:30:42 AM,-,1627982920876,
2021-08-03 11:30:42 AM,-,1627982920880,
2021-08-03 11:30:42 AM,-,1627982920883,
2021-08-03 11:30:42 AM,-,1627982920886,
2021-08-03 11:30:42 AM,-,1627982920890,
2021-08-03 11:30:42 AM,-,1627982920893,
2021-08-03 11:30:42 AM,-,1627982920896,
2021-08-03 11:30:42 AM,-,1627982920900,
2021-08-03 11:30:42 AM,-,1627982920903,
2021-08-03 11:30:42 AM,-,1627982920906,
2021-08-03 11:30:42 AM,-,1627982920910,
2021-08-03 11:30:42 AM,-,1627982920913,
2021-08-03 11:30:42 AM,-,1627982920916,
2021-08-03 11:30:42 AM,-,1627982920920,
2021-08-03 11:30:42 AM,-,1627982920923,
2021-08-03 11:30:42 AM,-,1627982920926,
2021-08-03 11:30:42 AM,-,1627982920930,
2021-08-03 11:30:42 AM,-,1627982920933,
2021-08-03 11:30:42 AM,-,1627982920936,
2021-08-03 11:30:42 AM,-,1627982920940,
2021-08-03 11:30:42 AM,-,1627982920943,
2021-08-03 11:30:42 AM,-,1627982920946,
2021-08-03 11:30:42 AM,-,1627982920950,
2021-08-03 11:30:42 AM,-,1627982920953,
2021-08-03 11:30:42 AM,-,1627982920956,
2021-08-03 11:30:42 AM,-,1627982920960,
2021-08-03 11:30:42 AM,-,1627982920963,
2021-08-03 11:30:42 AM,-,1627982920966,
2021-08-03 11:30:42 AM,-,1627982920970,
2021-08-03 11:30:42 AM,-,1627982920973,
2021-08-03 11:30:42 AM,-,1627982920976,
2021-08-03 11:30:42 AM,-,1627982920980,
2021-08-03 11:30:42 AM,-,1627982920983,
2021-08-03 11:30:42 AM,-,1627982920986,
2021-08-03 11:30:42 AM,-,1627982920990,
2021-08-03 11:30:42 AM,-,1627982920993,
2021-08-03 11:30:42 AM,-,1627982920996,
2021-08-03 11:30:43 AM,-,1627982921000,
2021-08-03 11:30:43 AM,-,1627982921003,
2021-08-03 11:30:43 AM,-,1627982921006,
2021-08-03 11:30:43 AM,-,1627982921010,
2021-08-03 11:30:43 AM,-,1627982921013,
2021-08-03 11:30:43 AM,-,1627982921016,
2021-08-03 11:30:43 AM,-,1627982921020,
2021-08-03 11:30:43 AM,-,1627982921023,
2021-08-03 11:30:43 AM,-,1627982921026,
2021-08-03 11:30:43 AM,-,1627982921030,
2021-08-03 11:30:43 AM,-,1627982921033,
2021-08-03 11:30:43 AM,-,1627982921036,
2021-08-03 11:30:43 AM,-,1627982921040,
2021-08-03 11:30:43 AM,-,1627982921043,
2021-08-03 11:30:43 AM,-,1627982921046,
2021-08-03 11:30:43 AM,-,1627982921050,
2021-08-03 11:30:43 AM,-,1627982921053,
2021-08-03 11:30:43 AM,-,1627982921056,
2021-08-03 11:30:43 AM,-,1627982921060,
2021-08-03 11:30:43 AM,-,1627982921063,
2021-08-03 11:30:43 AM,-,1627982921066,
2021-08-03 11:30:43 AM,-,1627982921070,
2021-08-03 11:30:43 AM,-,1627982921073,
2021-08-03 11:30:43 AM,-,1627982921076,
2021-08-03 11:30:43 AM,-,1627982921080,
2021-08-03 11:30:43 AM,-,1627982921083,
2021-08-03 11:30:43 AM,-,1627982921086,
2021-08-03 11:30:43 AM,-,1627982921090,
2021-08-03 11:30:43 AM,-,1627982921093,
2021-08-03 11:30:43 AM,-,1627982921096,
2021-08-03 11:30:43 AM,-,1627982921100,
2021-08-03 11:30:43 AM,-,1627982921103,
2021-08-03 11:30:43 AM,-,1627982921106,
2021-08-03 11:30:43 AM,-,1627982921110,
2021-08-03 11:30:43 AM,-,1627982921113,
2021-08-03 11:30:43 AM,-,1627982921116,
2021-08-03 11:30:43 AM,-,1627982921120,
2021-08-03 11:30:43 AM,-,1627982921123,
2021-08-03 11:30:43 AM,-,1627982921126,
2021-08-03 11:30:43 AM,-,1627982921130,
2021-08-03 11:30:43 AM,-,1627982921133,
2021-08-03 11:30:43 AM,-,1627982921136,
2021-08-03 11:30:43 AM,-,1627982921140,
2021-08-03 11:30:43 AM,-,1627982921143,
2021-08-03 11:30:43 AM,-,1627982921146,
2021-08-03 11:30:43 AM,-,1627982921150,
2021-08-03 11:30:43 AM,-,1627982921153,
2021-08-03 11:30:43 AM,-,1627982921156,
2021-08-03 11:30:43 AM,-,1627982921160,
2021-08-03 11:30:43 AM,-,1627982921163,
2021-08-03 11:30:43 AM,-,1627982921166,
2021-08-03 11:30:43 AM,-,1627982921170,
2021-08-03 11:30:43 AM,-,1627982921173,
2021-08-03 11:30:43 AM,-,1627982921176,
2021-08-03 11:30:43 AM,-,1627982921180,
2021-08-03 11:30:43 AM,-,1627982921183,
2021-08-03 11:30:43 AM,-,1627982921186,
2021-08-03 11:30:43 AM,-,1627982921190,
2021-08-03 11:30:43 AM,-,1627982921193,
2021-08-03 11:30:43 AM,-,1627982921196,
2021-08-03 11:30:43 AM,-,1627982921200,
2021-08-03 11:30:43 AM,-,1627982921203,
2021-08-03 11:30:43 AM,-,1627982921206,
2021-08-03 11:30:43 AM,-,1627982921210,
2021-08-03 11:30:43 AM,-,1627982921213,
2021-08-03 11:30:43 AM,-,1627982921216,
2021-08-03 11:30:43 AM,-,1627982921220,
2021-08-03 11:30:43 AM,-,1627982921223,
2021-08-03 11:30:43 AM,-,1627982921226,
2021-08-03 11:30:43 AM,-,1627982921230,
2021-08-03 11:30:43 AM,-,1627982921233,
2021-08-03 11:30:43 AM,-,1627982921236,
2021-08-03 11:30:43 AM,-,1627982921240,
2021-08-03 11:30:43 AM,-,1627982921243,
2021-08-03 11:30:43 AM,-,1627982921246,
2021-08-03 11:30:43 AM,-,1627982921250,
2021-08-03 11:30:43 AM,-,1627982921253,
2021-08-03 11:30:43 AM,-,1627982921256,
2021-08-03 11:30:43 AM,-,1627982921260,
2021-08-03 11:30:43 AM,-,1627982921263,
2021-08-03 11:30:43 AM,-,1627982921266,
2021-08-03 11:30:43 AM,-,1627982921270,
2021-08-03 11:30:43 AM,-,1627982921273,
2021-08-03 11:30:43 AM,-,1627982921276,
2021-08-03 11:30:43 AM,-,1627982921280,
2021-08-03 11:30:43 AM,-,1627982921283,
2021-08-03 11:30:43 AM,-,1627982921286,
2021-08-03 11:30:43 AM,-,1627982921290,
2021-08-03 11:30:43 AM,-,1627982921293,
2021-08-03 11:30:43 AM,-,1627982921296,
2021-08-03 11:30:43 AM,-,1627982921300,
2021-08-03 11:30:43 AM,-,1627982921303,
2021-08-03 11:30:43 AM,-,1627982921306,
2021-08-03 11:30:43 AM,-,1627982921310,
2021-08-03 11:30:43 AM,-,1627982921313,
2021-08-03 11:30:43 AM,-,1627982921316,
2021-08-03 11:30:43 AM,-,1627982921320,
2021-08-03 11:30:43 AM,-,1627982921323,
2021-08-03 11:30:43 AM,-,1627982921326,
2021-08-03 11:30:43 AM,-,1627982921330,
2021-08-03 11:30:43 AM,-,1627982921333,
2021-08-03 11:30:43 AM,-,1627982921336,
2021-08-03 11:30:43 AM,-,1627982921340,
2021-08-03 11:30:43 AM,-,1627982921343,
2021-08-03 11:30:43 AM,-,1627982921346,
2021-08-03 11:30:43 AM,-,1627982921350,
2021-08-03 11:30:43 AM,-,1627982921353,
2021-08-03 11:30:43 AM,-,1627982921356,
2021-08-03 11:30:43 AM,-,1627982921360,
2021-08-03 11:30:43 AM,-,1627982921363,
2021-08-03 11:30:43 AM,-,1627982921366,
2021-08-03 11:30:43 AM,-,1627982921370,
2021-08-03 11:30:43 AM,-,1627982921373,
2021-08-03 11:30:43 AM,-,1627982921376,
2021-08-03 11:30:43 AM,-,1627982921380,
2021-08-03 11:30:43 AM,-,1627982921383,
2021-08-03 11:30:43 AM,-,1627982921386,
2021-08-03 11:30:43 AM,-,1627982921390,
2021-08-03 11:30:43 AM,-,1627982921393,
2021-08-03 11:30:43 AM,-,1627982921396,
2021-08-03 11:30:43 AM,-,1627982921400,
2021-08-03 11:30:43 AM,-,1627982921403,
2021-08-03 11:30:43 AM,-,1627982921406,
2021-08-03 11:30:43 AM,-,1627982921410,
2021-08-03 11:30:43 AM,-,1627982921413,
2021-08-03 11:30:43 AM,-,1627982921416,
2021-08-03 11:30:43 AM,-,1627982921420,
2021-08-03 11:30:43 AM,-,1627982921423,
2021-08-03 11:30:43 AM,-,1627982921426,
2021-08-03 11:30:43 AM,-,1627982921430,
2021-08-03 11:30:43 AM,-,1627982921433,
2021-08-03 11:30:43 AM,-,1627982921436,
2021-08-03 11:30:43 AM,-,1627982921440,
2021-08-03 11:30:43 AM,-,1627982921443,
2021-08-03 11:30:43 AM,-,1627982921446,
2021-08-03 11:30:43 AM,-,1627982921450,
2021-08-03 11:30:43 AM,-,1627982921453,
2021-08-03 11:30:43 AM,-,1627982921456,
2021-08-03 11:30:43 AM,-,1627982921460,
2021-08-03 11:30:43 AM,-,1627982921463,
2021-08-03 11:30:43 AM,-,1627982921466,
2021-08-03 11:30:43 AM,-,1627982921470,
2021-08-03 11:30:43 AM,-,1627982921473,
2021-08-03 11:30:43 AM,-,1627982921476,
2021-08-03 11:30:43 AM,-,1627982921480,
2021-08-03 11:30:43 AM,-,1627982921483,
2021-08-03 11:30:43 AM,-,1627982921486,
2021-08-03 11:30:43 AM,-,1627982921490,
2021-08-03 11:30:43 AM,-,1627982921493,
2021-08-03 11:30:43 AM,-,1627982921496,
2021-08-03 11:30:43 AM,-,1627982921500,
2021-08-03 11:30:43 AM,-,1627982921503,
2021-08-03 11:30:43 AM,-,1627982921506,
2021-08-03 11:30:43 AM,-,1627982921510,
2021-08-03 11:30:43 AM,-,1627982921513,
2021-08-03 11:30:43 AM,-,1627982921516,
2021-08-03 11:30:43 AM,-,1627982921520,
2021-08-03 11:30:43 AM,-,1627982921523,
2021-08-03 11:30:43 AM,-,1627982921526,
2021-08-03 11:30:43 AM,-,1627982921530,
2021-08-03 11:30:43 AM,-,1627982921533,
2021-08-03 11:30:43 AM,-,1627982921536,
2021-08-03 11:30:43 AM,-,1627982921540,
2021-08-03 11:30:43 AM,-,1627982921543,
2021-08-03 11:30:43 AM,-,1627982921546,
2021-08-03 11:30:43 AM,-,1627982921550,
2021-08-03 11:30:43 AM,-,1627982921553,
2021-08-03 11:30:43 AM,-,1627982921556,
2021-08-03 11:30:43 AM,-,1627982921560,
2021-08-03 11:30:43 AM,-,1627982921563,
2021-08-03 11:30:43 AM,-,1627982921566,
2021-08-03 11:30:43 AM,-,1627982921570,
2021-08-03 11:30:43 AM,-,1627982921573,
2021-08-03 11:30:43 AM,-,1627982921576,
2021-08-03 11:30:43 AM,-,1627982921580,
2021-08-03 11:30:43 AM,-,1627982921583,
2021-08-03 11:30:43 AM,-,1627982921586,
2021-08-03 11:30:43 AM,-,1627982921590,
2021-08-03 11:30:43 AM,-,1627982921593,
2021-08-03 11:30:43 AM,-,1627982921596,
2021-08-03 11:30:43 AM,-,1627982921600,
2021-08-03 11:30:43 AM,-,1627982921603,
2021-08-03 11:30:43 AM,-,1627982921606,
2021-08-03 11:30:43 AM,-,1627982921610,
2021-08-03 11:30:43 AM,-,1627982921613,
2021-08-03 11:30:43 AM,-,1627982921616,
2021-08-03 11:30:43 AM,-,1627982921620,
2021-08-03 11:30:43 AM,-,1627982921623,
2021-08-03 11:30:43 AM,-,1627982921626,
2021-08-03 11:30:43 AM,-,1627982921630,
2021-08-03 11:30:43 AM,-,1627982921633,
2021-08-03 11:30:43 AM,-,1627982921636,
2021-08-03 11:30:43 AM,-,1627982921640,
2021-08-03 11:30:43 AM,-,1627982921643,
2021-08-03 11:30:43 AM,-,1627982921646,
2021-08-03 11:30:43 AM,-,1627982921650,
2021-08-03 11:30:43 AM,-,1627982921653,
2021-08-03 11:30:43 AM,-,1627982921656,
2021-08-03 11:30:43 AM,-,1627982921660,
2021-08-03 11:30:43 AM,-,1627982921663,
2021-08-03 11:30:43 AM,-,1627982921666,
2021-08-03 11:30:43 AM,-,1627982921670,
2021-08-03 11:30:43 AM,-,1627982921673,
2021-08-03 11:30:43 AM,-,1627982921676,
2021-08-03 11:30:43 AM,-,1627982921680,
2021-08-03 11:30:43 AM,-,1627982921683,
2021-08-03 11:30:43 AM,-,1627982921686,
2021-08-03 11:30:43 AM,-,1627982921690,
2021-08-03 11:30:43 AM,-,1627982921693,
2021-08-03 11:30:43 AM,-,1627982921696,
2021-08-03 11:30:43 AM,-,1627982921700,
2021-08-03 11:30:43 AM,-,1627982921703,
2021-08-03 11:30:43 AM,-,1627982921706,
2021-08-03 11:30:43 AM,-,1627982921710,
2021-08-03 11:30:43 AM,-,1627982921713,
2021-08-03 11:30:43 AM,-,1627982921716,
2021-08-03 11:30:43 AM,-,1627982921720,
2021-08-03 11:30:43 AM,-,1627982921723,
2021-08-03 11:30:43 AM,-,1627982921726,
2021-08-03 11:30:43 AM,-,1627982921730,
2021-08-03 11:30:43 AM,-,1627982921733,
2021-08-03 11:30:43 AM,-,1627982921736,
2021-08-03 11:30:43 AM,-,1627982921740,
2021-08-03 11:30:43 AM,-,1627982921743,
2021-08-03 11:30:43 AM,-,1627982921746,
2021-08-03 11:30:43 AM,-,1627982921750,
2021-08-03 11:30:43 AM,-,1627982921753,
2021-08-03 11:30:43 AM,-,1627982921756,
2021-08-03 11:30:43 AM,-,1627982921760,
2021-08-03 11:30:43 AM,-,1627982921763,
2021-08-03 11:30:43 AM,-,1627982921766,
2021-08-03 11:30:43 AM,-,1627982921770,
2021-08-03 11:30:43 AM,-,1627982921773,
2021-08-03 11:30:43 AM,-,1627982921776,
2021-08-03 11:30:43 AM,-,1627982921780,
2021-08-03 11:30:43 AM,-,1627982921783,
2021-08-03 11:30:43 AM,-,1627982921786,
2021-08-03 11:30:43 AM,-,1627982921790,
2021-08-03 11:30:43 AM,-,1627982921793,
2021-08-03 11:30:43 AM,-,1627982921796,
2021-08-03 11:30:43 AM,-,1627982921800,
2021-08-03 11:30:43 AM,-,1627982921803,
2021-08-03 11:30:43 AM,-,1627982921806,
2021-08-03 11:30:43 AM,-,1627982921810,
2021-08-03 11:30:43 AM,-,1627982921813,
2021-08-03 11:30:43 AM,-,1627982921816,
2021-08-03 11:30:43 AM,-,1627982921820,
2021-08-03 11:30:43 AM,-,1627982921823,
2021-08-03 11:30:43 AM,-,1627982921826,
2021-08-03 11:30:43 AM,-,1627982921830,
2021-08-03 11:30:43 AM,-,1627982921833,
2021-08-03 11:30:43 AM,-,1627982921836,
2021-08-03 11:30:43 AM,-,1627982921840,
2021-08-03 11:30:43 AM,-,1627982921843,
2021-08-03 11:30:43 AM,-,1627982921846,
2021-08-03 11:30:43 AM,-,1627982921850,
2021-08-03 11:30:43 AM,-,1627982921853,
2021-08-03 11:30:43 AM,-,1627982921856,
2021-08-03 11:30:43 AM,-,1627982921860,
2021-08-03 11:30:43 AM,-,1627982921863,
2021-08-03 11:30:43 AM,-,1627982921866,
2021-08-03 11:30:43 AM,-,1627982921870,
2021-08-03 11:30:43 AM,-,1627982921873,
2021-08-03 11:30:43 AM,-,1627982921876,
2021-08-03 11:30:43 AM,-,1627982921880,
2021-08-03 11:30:43 AM,-,1627982921883,
2021-08-03 11:30:43 AM,-,1627982921886,
2021-08-03 11:30:43 AM,-,1627982921890,
2021-08-03 11:30:43 AM,-,1627982921893,
2021-08-03 11:30:43 AM,-,1627982921896,
2021-08-03 11:30:43 AM,-,1627982921900,
2021-08-03 11:30:43 AM,-,1627982921903,
2021-08-03 11:30:43 AM,-,1627982921906,
2021-08-03 11:30:43 AM,-,1627982921910,
2021-08-03 11:30:43 AM,-,1627982921913,
2021-08-03 11:30:43 AM,-,1627982921916,
2021-08-03 11:30:43 AM,-,1627982921920,
2021-08-03 11:30:43 AM,-,1627982921923,
2021-08-03 11:30:43 AM,-,1627982921926,
2021-08-03 11:30:43 AM,-,1627982921930,
2021-08-03 11:30:43 AM,-,1627982921933,
2021-08-03 11:30:43 AM,-,1627982921936,
2021-08-03 11:30:43 AM,-,1627982921940,
2021-08-03 11:30:43 AM,-,1627982921943,
2021-08-03 11:30:43 AM,-,1627982921946,
2021-08-03 11:30:43 AM,-,1627982921950,
2021-08-03 11:30:43 AM,-,1627982921953,
2021-08-03 11:30:43 AM,-,1627982921956,
2021-08-03 11:30:43 AM,-,1627982921960,
2021-08-03 11:30:43 AM,-,1627982921963,
2021-08-03 11:30:43 AM,-,1627982921966,
2021-08-03 11:30:43 AM,-,1627982921970,
2021-08-03 11:30:43 AM,-,1627982921973,
2021-08-03 11:30:43 AM,-,1627982921976,
2021-08-03 11:30:43 AM,-,1627982921980,
2021-08-03 11:30:43 AM,-,1627982921983,
2021-08-03 11:30:43 AM,-,1627982921986,
2021-08-03 11:30:43 AM,-,1627982921990,
2021-08-03 11:30:43 AM,-,1627982921993,
2021-08-03 11:30:43 AM,-,1627982921996,
2021-08-03 11:30:44 AM,-,1627982922000,
2021-08-03 11:30:44 AM,-,1627982922003,
2021-08-03 11:30:44 AM,-,1627982922006,
2021-08-03 11:30:44 AM,-,1627982922010,
2021-08-03 11:30:44 AM,-,1627982922013,
2021-08-03 11:30:44 AM,-,1627982922016,
2021-08-03 11:30:44 AM,-,1627982922020,
2021-08-03 11:30:44 AM,-,1627982922023,
2021-08-03 11:30:44 AM,-,1627982922026,
2021-08-03 11:30:44 AM,-,1627982922030,
2021-08-03 11:30:44 AM,-,1627982922033,
2021-08-03 11:30:44 AM,-,1627982922036,
2021-08-03 11:30:44 AM,-,1627982922040,
2021-08-03 11:30:44 AM,-,1627982922043,
2021-08-03 11:30:44 AM,-,1627982922046,
2021-08-03 11:30:44 AM,-,1627982922050,
2021-08-03 11:30:44 AM,-,1627982922053,
2021-08-03 11:30:44 AM,-,1627982922056,
2021-08-03 11:30:44 AM,-,1627982922060,
2021-08-03 11:30:44 AM,-,1627982922063,
2021-08-03 11:30:44 AM,-,1627982922066,
2021-08-03 11:30:44 AM,-,1627982922070,
2021-08-03 11:30:44 AM,-,1627982922073,
2021-08-03 11:30:44 AM,-,1627982922076,
2021-08-03 11:30:44 AM,-,1627982922080,
2021-08-03 11:30:44 AM,-,1627982922083,
2021-08-03 11:30:44 AM,-,1627982922086,
2021-08-03 11:30:44 AM,-,1627982922090,
2021-08-03 11:30:44 AM,-,1627982922093,
2021-08-03 11:30:44 AM,-,1627982922096,
2021-08-03 11:30:44 AM,-,1627982922100,
2021-08-03 11:30:44 AM,-,1627982922103,
2021-08-03 11:30:44 AM,-,1627982922106,
2021-08-03 11:30:44 AM,-,1627982922110,
2021-08-03 11:30:44 AM,-,1627982922113,
2021-08-03 11:30:44 AM,-,1627982922116,
2021-08-03 11:30:44 AM,-,1627982922120,
2021-08-03 11:30:44 AM,-,1627982922123,
2021-08-03 11:30:44 AM,-,1627982922126,
2021-08-03 11:30:44 AM,-,1627982922130,
2021-08-03 11:30:44 AM,-,1627982922133,
2021-08-03 11:30:44 AM,-,1627982922136,
2021-08-03 11:30:44 AM,-,1627982922140,
2021-08-03 11:30:44 AM,-,1627982922143,
2021-08-03 11:30:44 AM,-,1627982922146,
2021-08-03 11:30:44 AM,-,1627982922150,
2021-08-03 11:30:44 AM,-,1627982922153,
2021-08-03 11:30:44 AM,-,1627982922156,
2021-08-03 11:30:44 AM,-,1627982922160,
2021-08-03 11:30:44 AM,-,1627982922163,
2021-08-03 11:30:44 AM,-,1627982922166,
2021-08-03 11:30:44 AM,-,1627982922170,
2021-08-03 11:30:44 AM,-,1627982922173,
2021-08-03 11:30:44 AM,-,1627982922176,
2021-08-03 11:30:44 AM,-,1627982922180,
2021-08-03 11:30:44 AM,-,1627982922183,
2021-08-03 11:30:44 AM,-,1627982922186,
2021-08-03 11:30:44 AM,-,1627982922190,
2021-08-03 11:30:44 AM,-,1627982922193,
2021-08-03 11:30:44 AM,-,1627982922196,
2021-08-03 11:30:44 AM,-,1627982922200,
2021-08-03 11:30:44 AM,-,1627982922203,
2021-08-03 11:30:44 AM,-,1627982922206,
2021-08-03 11:30:44 AM,-,1627982922210,
2021-08-03 11:30:44 AM,-,1627982922213,
2021-08-03 11:30:44 AM,-,1627982922216,
2021-08-03 11:30:44 AM,-,1627982922220,
2021-08-03 11:30:44 AM,-,1627982922223,
2021-08-03 11:30:44 AM,-,1627982922226,
2021-08-03 11:30:44 AM,-,1627982922230,
2021-08-03 11:30:44 AM,-,1627982922233,
2021-08-03 11:30:44 AM,-,1627982922236,
2021-08-03 11:30:44 AM,-,1627982922240,
2021-08-03 11:30:44 AM,-,1627982922243,
2021-08-03 11:30:44 AM,-,1627982922246,
2021-08-03 11:30:44 AM,-,1627982922250,
2021-08-03 11:30:44 AM,-,1627982922253,
2021-08-03 11:30:44 AM,-,1627982922256,
2021-08-03 11:30:44 AM,-,1627982922260,
2021-08-03 11:30:44 AM,-,1627982922263,
2021-08-03 11:30:44 AM,-,1627982922266,
2021-08-03 11:30:44 AM,-,1627982922270,
2021-08-03 11:30:44 AM,-,1627982922273,
2021-08-03 11:30:44 AM,-,1627982922276,
2021-08-03 11:30:44 AM,-,1627982922280,
2021-08-03 11:30:44 AM,-,1627982922283,
2021-08-03 11:30:44 AM,-,1627982922286,
2021-08-03 11:30:44 AM,-,1627982922290,
2021-08-03 11:30:44 AM,-,1627982922293,
2021-08-03 11:30:44 AM,-,1627982922296,
2021-08-03 11:30:44 AM,-,1627982922300,
2021-08-03 11:30:44 AM,-,1627982922303,
2021-08-03 11:30:44 AM,-,1627982922306,
2021-08-03 11:30:44 AM,-,1627982922310,
2021-08-03 11:30:44 AM,-,1627982922313,
2021-08-03 11:30:44 AM,-,1627982922316,
2021-08-03 11:30:44 AM,-,1627982922320,
2021-08-03 11:30:44 AM,-,1627982922323,
2021-08-03 11:30:44 AM,-,1627982922326,
2021-08-03 11:30:44 AM,-,1627982922330,
2021-08-03 11:30:44 AM,-,1627982922333,
2021-08-03 11:30:44 AM,-,1627982922336,
2021-08-03 11:30:44 AM,-,1627982922340,
2021-08-03 11:30:44 AM,-,1627982922343,
2021-08-03 11:30:44 AM,-,1627982922346,
2021-08-03 11:30:44 AM,-,1627982922350,
2021-08-03 11:30:44 AM,-,1627982922353,
2021-08-03 11:30:44 AM,-,1627982922356,
2021-08-03 11:30:44 AM,-,1627982922360,
2021-08-03 11:30:44 AM,-,1627982922363,
2021-08-03 11:30:44 AM,-,1627982922366,
2021-08-03 11:30:44 AM,-,1627982922370,
2021-08-03 11:30:44 AM,-,1627982922373,
2021-08-03 11:30:44 AM,-,1627982922376,
2021-08-03 11:30:44 AM,-,1627982922380,
2021-08-03 11:30:44 AM,-,1627982922383,
2021-08-03 11:30:44 AM,-,1627982922386,
2021-08-03 11:30:44 AM,-,1627982922390,
2021-08-03 11:30:44 AM,-,1627982922393,
2021-08-03 11:30:44 AM,-,1627982922396,
2021-08-03 11:30:44 AM,-,1627982922400,
2021-08-03 11:30:44 AM,-,1627982922403,
2021-08-03 11:30:44 AM,-,1627982922406,
2021-08-03 11:30:44 AM,-,1627982922410,
2021-08-03 11:30:44 AM,-,1627982922413,
2021-08-03 11:30:44 AM,-,1627982922416,
2021-08-03 11:30:44 AM,-,1627982922420,
2021-08-03 11:30:44 AM,-,1627982922423,
2021-08-03 11:30:44 AM,-,1627982922426,
2021-08-03 11:30:44 AM,-,1627982922430,
2021-08-03 11:30:44 AM,-,1627982922433,
2021-08-03 11:30:44 AM,-,1627982922436,
2021-08-03 11:30:44 AM,-,1627982922440,
2021-08-03 11:30:44 AM,-,1627982922443,
2021-08-03 11:30:44 AM,-,1627982922446,
2021-08-03 11:30:44 AM,-,1627982922450,
2021-08-03 11:30:44 AM,-,1627982922453,
2021-08-03 11:30:44 AM,-,1627982922456,
2021-08-03 11:30:44 AM,-,1627982922460,
2021-08-03 11:30:44 AM,-,1627982922463,
2021-08-03 11:30:44 AM,-,1627982922466,
2021-08-03 11:30:44 AM,-,1627982922470,
2021-08-03 11:30:44 AM,-,1627982922473,
2021-08-03 11:30:44 AM,-,1627982922476,
2021-08-03 11:30:44 AM,-,1627982922480,
2021-08-03 11:30:44 AM,-,1627982922483,
2021-08-03 11:30:44 AM,-,1627982922486,
2021-08-03 11:30:44 AM,-,1627982922490,
2021-08-03 11:30:44 AM,-,1627982922493,
2021-08-03 11:30:44 AM,-,1627982922496,
2021-08-03 11:30:44 AM,-,1627982922500,
2021-08-03 11:30:44 AM,-,1627982922503,
2021-08-03 11:30:44 AM,-,1627982922506,
2021-08-03 11:30:44 AM,-,1627982922510,
2021-08-03 11:30:44 AM,-,1627982922513,
2021-08-03 11:30:44 AM,-,1627982922516,
2021-08-03 11:30:44 AM,-,1627982922520,
2021-08-03 11:30:44 AM,-,1627982922523,
2021-08-03 11:30:44 AM,-,1627982922526,
2021-08-03 11:30:44 AM,-,1627982922530,
2021-08-03 11:30:44 AM,-,1627982922533,
2021-08-03 11:30:44 AM,-,1627982922536,
2021-08-03 11:30:44 AM,-,1627982922540,
2021-08-03 11:30:44 AM,-,1627982922543,
2021-08-03 11:30:44 AM,-,1627982922546,
2021-08-03 11:30:44 AM,-,1627982922550,
2021-08-03 11:30:44 AM,-,1627982922553,
2021-08-03 11:30:44 AM,-,1627982922556,
2021-08-03 11:30:44 AM,-,1627982922560,
2021-08-03 11:30:44 AM,-,1627982922563,
2021-08-03 11:30:44 AM,-,1627982922566,
2021-08-03 11:30:44 AM,-,1627982922570,
2021-08-03 11:30:44 AM,-,1627982922573,
2021-08-03 11:30:44 AM,-,1627982922576,
2021-08-03 11:30:44 AM,-,1627982922580,
2021-08-03 11:30:44 AM,-,1627982922583,
2021-08-03 11:30:44 AM,-,1627982922586,
2021-08-03 11:30:44 AM,-,1627982922590,
2021-08-03 11:30:44 AM,-,1627982922593,
2021-08-03 11:30:44 AM,-,1627982922596,
2021-08-03 11:30:44 AM,-,1627982922600,
2021-08-03 11:30:44 AM,-,1627982922603,
2021-08-03 11:30:44 AM,-,1627982922606,
2021-08-03 11:30:44 AM,-,1627982922610,
2021-08-03 11:30:44 AM,-,1627982922613,
2021-08-03 11:30:44 AM,-,1627982922616,
2021-08-03 11:30:44 AM,-,1627982922620,
2021-08-03 11:30:44 AM,-,1627982922623,
2021-08-03 11:30:44 AM,-,1627982922626,
2021-08-03 11:30:44 AM,-,1627982922630,
2021-08-03 11:30:44 AM,-,1627982922633,
2021-08-03 11:30:44 AM,-,1627982922636,
2021-08-03 11:30:44 AM,-,1627982922640,
2021-08-03 11:30:44 AM,-,1627982922643,
2021-08-03 11:30:44 AM,-,1627982922646,
2021-08-03 11:30:44 AM,-,1627982922650,
2021-08-03 11:30:44 AM,-,1627982922653,
2021-08-03 11:30:44 AM,-,1627982922656,
2021-08-03 11:30:44 AM,-,1627982922660,
2021-08-03 11:30:44 AM,-,1627982922663,
2021-08-03 11:30:44 AM,-,1627982922666,
2021-08-03 11:30:44 AM,-,1627982922670,
2021-08-03 11:30:44 AM,-,1627982922673,
2021-08-03 11:30:44 AM,-,1627982922676,
2021-08-03 11:30:44 AM,-,1627982922680,
2021-08-03 11:30:44 AM,-,1627982922683,
2021-08-03 11:30:44 AM,-,1627982922686,
2021-08-03 11:30:44 AM,-,1627982922690,
2021-08-03 11:30:44 AM,-,1627982922693,
2021-08-03 11:30:44 AM,-,1627982922696,
2021-08-03 11:30:44 AM,-,1627982922700,
2021-08-03 11:30:44 AM,-,1627982922703,
2021-08-03 11:30:44 AM,-,1627982922706,
2021-08-03 11:30:44 AM,-,1627982922710,
2021-08-03 11:30:44 AM,-,1627982922713,
2021-08-03 11:30:44 AM,-,1627982922716,
2021-08-03 11:30:44 AM,-,1627982922720,
2021-08-03 11:30:44 AM,-,1627982922723,
2021-08-03 11:30:44 AM,-,1627982922726,
2021-08-03 11:30:44 AM,-,1627982922730,
2021-08-03 11:30:44 AM,-,1627982922733,
2021-08-03 11:30:44 AM,-,1627982922736,
2021-08-03 11:30:44 AM,-,1627982922740,
2021-08-03 11:30:44 AM,-,1627982922743,
2021-08-03 11:30:44 AM,-,1627982922746,
2021-08-03 11:30:44 AM,-,1627982922750,
2021-08-03 11:30:44 AM,-,1627982922753,
2021-08-03 11:30:44 AM,-,1627982922756,
2021-08-03 11:30:44 AM,-,1627982922760,
2021-08-03 11:30:44 AM,-,1627982922763,
2021-08-03 11:30:44 AM,-,1627982922766,
2021-08-03 11:30:44 AM,-,1627982922770,
2021-08-03 11:30:44 AM,-,1627982922773,
2021-08-03 11:30:44 AM,-,1627982922776,
2021-08-03 11:30:44 AM,-,1627982922780,
2021-08-03 11:30:44 AM,-,1627982922783,
2021-08-03 11:30:44 AM,-,1627982922786,
2021-08-03 11:30:44 AM,-,1627982922790,
2021-08-03 11:30:44 AM,-,1627982922793,
2021-08-03 11:30:44 AM,-,1627982922796,
2021-08-03 11:30:44 AM,-,1627982922800,
2021-08-03 11:30:44 AM,-,1627982922803,
2021-08-03 11:30:44 AM,-,1627982922806,
2021-08-03 11:30:44 AM,-,1627982922810,
2021-08-03 11:30:44 AM,-,1627982922813,
2021-08-03 11:30:44 AM,-,1627982922816,
2021-08-03 11:30:44 AM,-,1627982922820,
2021-08-03 11:30:44 AM,-,1627982922823,
2021-08-03 11:30:44 AM,-,1627982922826,
2021-08-03 11:30:44 AM,-,1627982922830,
2021-08-03 11:30:44 AM,-,1627982922833,
2021-08-03 11:30:44 AM,-,1627982922836,
2021-08-03 11:30:44 AM,-,1627982922840,
2021-08-03 11:30:44 AM,-,1627982922843,
2021-08-03 11:30:44 AM,-,1627982922846,
2021-08-03 11:30:44 AM,-,1627982922850,
2021-08-03 11:30:44 AM,-,1627982922853,
2021-08-03 11:30:44 AM,-,1627982922856,
2021-08-03 11:30:44 AM,-,1627982922860,
2021-08-03 11:30:44 AM,-,1627982922863,
2021-08-03 11:30:44 AM,-,1627982922866,
2021-08-03 11:30:44 AM,-,1627982922870,
2021-08-03 11:30:44 AM,-,1627982922873,
2021-08-03 11:30:44 AM,-,1627982922876,
2021-08-03 11:30:44 AM,-,1627982922880,
2021-08-03 11:30:44 AM,-,1627982922883,
2021-08-03 11:30:44 AM,-,1627982922886,
2021-08-03 11:30:44 AM,-,1627982922890,
2021-08-03 11:30:44 AM,-,1627982922893,
2021-08-03 11:30:44 AM,-,1627982922896,
2021-08-03 11:30:44 AM,-,1627982922900,
2021-08-03 11:30:44 AM,-,1627982922903,
2021-08-03 11:30:44 AM,-,1627982922906,
2021-08-03 11:30:44 AM,-,1627982922910,
2021-08-03 11:30:44 AM,-,1627982922913,
2021-08-03 11:30:44 AM,-,1627982922916,
2021-08-03 11:30:44 AM,-,1627982922920,
2021-08-03 11:30:44 AM,-,1627982922923,
2021-08-03 11:30:44 AM,-,1627982922926,
2021-08-03 11:30:44 AM,-,1627982922930,
2021-08-03 11:30:44 AM,-,1627982922933,
2021-08-03 11:30:44 AM,-,1627982922936,
2021-08-03 11:30:44 AM,-,1627982922940,
2021-08-03 11:30:44 AM,-,1627982922943,
2021-08-03 11:30:44 AM,-,1627982922946,
2021-08-03 11:30:44 AM,-,1627982922950,
2021-08-03 11:30:44 AM,-,1627982922953,
2021-08-03 11:30:44 AM,-,1627982922956,
2021-08-03 11:30:44 AM,-,1627982922960,
2021-08-03 11:30:44 AM,-,1627982922963,
2021-08-03 11:30:44 AM,-,1627982922966,
2021-08-03 11:30:44 AM,-,1627982922970,
2021-08-03 11:30:44 AM,-,1627982922973,
2021-08-03 11:30:44 AM,-,1627982922976,
2021-08-03 11:30:44 AM,-,1627982922980,
2021-08-03 11:30:44 AM,-,1627982922983,
2021-08-03 11:30:44 AM,-,1627982922986,
2021-08-03 11:30:44 AM,-,1627982922990,
2021-08-03 11:30:44 AM,-,1627982922993,
2021-08-03 11:30:44 AM,-,1627982922996,
2021-08-03 11:30:45 AM,-,1627982923000,
2021-08-03 11:30:45 AM,-,1627982923003,
2021-08-03 11:30:45 AM,-,1627982923006,
2021-08-03 11:30:45 AM,-,1627982923010,
2021-08-03 11:30:45 AM,-,1627982923013,
2021-08-03 11:30:45 AM,-,1627982923016,
2021-08-03 11:30:45 AM,-,1627982923020,
2021-08-03 11:30:45 AM,-,1627982923023,
2021-08-03 11:30:45 AM,-,1627982923026,
2021-08-03 11:30:45 AM,-,1627982923030,
2021-08-03 11:30:45 AM,-,1627982923033,
2021-08-03 11:30:45 AM,-,1627982923036,
2021-08-03 11:30:45 AM,-,1627982923040,
2021-08-03 11:30:45 AM,-,1627982923043,
2021-08-03 11:30:45 AM,-,1627982923046,
2021-08-03 11:30:45 AM,-,1627982923050,
2021-08-03 11:30:45 AM,-,1627982923053,
2021-08-03 11:30:45 AM,-,1627982923056,
2021-08-03 11:30:45 AM,-,1627982923060,
2021-08-03 11:30:45 AM,-,1627982923063,
2021-08-03 11:30:45 AM,-,1627982923066,
2021-08-03 11:30:45 AM,-,1627982923070,
2021-08-03 11:30:45 AM,-,1627982923073,
2021-08-03 11:30:45 AM,-,1627982923076,
2021-08-03 11:30:45 AM,-,1627982923080,
2021-08-03 11:30:45 AM,-,1627982923083,
2021-08-03 11:30:45 AM,-,1627982923086,
2021-08-03 11:30:45 AM,-,1627982923090,
2021-08-03 11:30:45 AM,-,1627982923093,
2021-08-03 11:30:45 AM,-,1627982923096,
2021-08-03 11:30:45 AM,-,1627982923100,
2021-08-03 11:30:45 AM,-,1627982923103,
2021-08-03 11:30:45 AM,-,1627982923106,
2021-08-03 11:30:45 AM,-,1627982923110,
2021-08-03 11:30:45 AM,-,1627982923113,
2021-08-03 11:30:45 AM,-,1627982923116,
2021-08-03 11:30:45 AM,-,1627982923120,
2021-08-03 11:30:45 AM,-,1627982923123,
2021-08-03 11:30:45 AM,-,1627982923126,
2021-08-03 11:30:45 AM,-,1627982923130,
2021-08-03 11:30:45 AM,-,1627982923133,
2021-08-03 11:30:45 AM,-,1627982923136,
2021-08-03 11:30:45 AM,-,1627982923140,
2021-08-03 11:30:45 AM,-,1627982923143,
2021-08-03 11:30:45 AM,-,1627982923146,
2021-08-03 11:30:45 AM,-,1627982923150,
2021-08-03 11:30:45 AM,-,1627982923153,
2021-08-03 11:30:45 AM,-,1627982923156,
2021-08-03 11:30:45 AM,-,1627982923160,
2021-08-03 11:30:45 AM,-,1627982923163,
2021-08-03 11:30:45 AM,-,1627982923166,
2021-08-03 11:30:45 AM,-,1627982923170,
2021-08-03 11:30:45 AM,-,1627982923173,
2021-08-03 11:30:45 AM,-,1627982923176,
2021-08-03 11:30:45 AM,-,1627982923180,
2021-08-03 11:30:45 AM,-,1627982923183,
2021-08-03 11:30:45 AM,-,1627982923186,
2021-08-03 11:30:45 AM,-,1627982923190,
2021-08-03 11:30:45 AM,-,1627982923193,
2021-08-03 11:30:45 AM,-,1627982923196,
2021-08-03 11:30:45 AM,-,1627982923200,
2021-08-03 11:30:45 AM,-,1627982923203,
2021-08-03 11:30:45 AM,-,1627982923206,
2021-08-03 11:30:45 AM,-,1627982923210,
2021-08-03 11:30:45 AM,-,1627982923213,
2021-08-03 11:30:45 AM,-,1627982923216,
2021-08-03 11:30:45 AM,-,1627982923220,
2021-08-03 11:30:45 AM,-,1627982923223,
2021-08-03 11:30:45 AM,-,1627982923226,
2021-08-03 11:30:45 AM,-,1627982923230,
2021-08-03 11:30:45 AM,-,1627982923233,
2021-08-03 11:30:45 AM,-,1627982923236,
2021-08-03 11:30:45 AM,-,1627982923240,
2021-08-03 11:30:45 AM,-,1627982923243,
2021-08-03 11:30:45 AM,-,1627982923246,
2021-08-03 11:30:45 AM,-,1627982923250,
2021-08-03 11:30:45 AM,-,1627982923253,
2021-08-03 11:30:45 AM,-,1627982923256,
2021-08-03 11:30:45 AM,-,1627982923260,
2021-08-03 11:30:45 AM,-,1627982923263,
2021-08-03 11:30:45 AM,-,1627982923266,
2021-08-03 11:30:45 AM,-,1627982923270,
2021-08-03 11:30:45 AM,-,1627982923273,
2021-08-03 11:30:45 AM,-,1627982923276,
2021-08-03 11:30:45 AM,-,1627982923280,
2021-08-03 11:30:45 AM,-,1627982923283,
2021-08-03 11:30:45 AM,-,1627982923286,
2021-08-03 11:30:45 AM,-,1627982923290,
2021-08-03 11:30:45 AM,-,1627982923293,
2021-08-03 11:30:45 AM,-,1627982923296,
2021-08-03 11:30:45 AM,-,1627982923300,
2021-08-03 11:30:45 AM,-,1627982923303,
2021-08-03 11:30:45 AM,-,1627982923306,
2021-08-03 11:30:45 AM,-,1627982923310,
2021-08-03 11:30:45 AM,-,1627982923313,
2021-08-03 11:30:45 AM,-,1627982923316,
2021-08-03 11:30:45 AM,-,1627982923320,
2021-08-03 11:30:45 AM,-,1627982923323,
2021-08-03 11:30:45 AM,-,1627982923326,
2021-08-03 11:30:45 AM,-,1627982923330,
2021-08-03 11:30:45 AM,-,1627982923333,
2021-08-03 11:30:45 AM,-,1627982923336,
2021-08-03 11:30:45 AM,-,1627982923340,
2021-08-03 11:30:45 AM,-,1627982923343,
2021-08-03 11:30:45 AM,-,1627982923346,
2021-08-03 11:30:45 AM,-,1627982923350,
2021-08-03 11:30:45 AM,-,1627982923353,
2021-08-03 11:30:45 AM,-,1627982923356,
2021-08-03 11:30:45 AM,-,1627982923360,
2021-08-03 11:30:45 AM,-,1627982923363,
2021-08-03 11:30:45 AM,-,1627982923366,
2021-08-03 11:30:45 AM,-,1627982923370,
2021-08-03 11:30:45 AM,-,1627982923373,
2021-08-03 11:30:45 AM,-,1627982923376,
2021-08-03 11:30:45 AM,-,1627982923380,
2021-08-03 11:30:45 AM,-,1627982923383,
2021-08-03 11:30:45 AM,-,1627982923386,
2021-08-03 11:30:45 AM,-,1627982923390,
2021-08-03 11:30:45 AM,-,1627982923393,
2021-08-03 11:30:45 AM,-,1627982923396,
2021-08-03 11:30:45 AM,-,1627982923400,
2021-08-03 11:30:45 AM,-,1627982923403,
2021-08-03 11:30:45 AM,-,1627982923406,
2021-08-03 11:30:45 AM,-,1627982923410,
2021-08-03 11:30:45 AM,-,1627982923413,
2021-08-03 11:30:45 AM,-,1627982923416,
2021-08-03 11:30:45 AM,-,1627982923420,
2021-08-03 11:30:45 AM,-,1627982923423,
2021-08-03 11:30:45 AM,-,1627982923426,
2021-08-03 11:30:45 AM,-,1627982923430,
2021-08-03 11:30:45 AM,-,1627982923433,
2021-08-03 11:30:45 AM,-,1627982923436,
2021-08-03 11:30:45 AM,-,1627982923440,
2021-08-03 11:30:45 AM,-,1627982923443,
2021-08-03 11:30:45 AM,-,1627982923446,
2021-08-03 11:30:45 AM,-,1627982923450,
2021-08-03 11:30:45 AM,-,1627982923453,
2021-08-03 11:30:45 AM,-,1627982923456,
2021-08-03 11:30:45 AM,-,1627982923460,
2021-08-03 11:30:45 AM,-,1627982923463,
2021-08-03 11:30:45 AM,-,1627982923466,
2021-08-03 11:30:45 AM,-,1627982923470,
2021-08-03 11:30:45 AM,-,1627982923473,
2021-08-03 11:30:45 AM,-,1627982923476,
2021-08-03 11:30:45 AM,-,1627982923480,
2021-08-03 11:30:45 AM,-,1627982923483,
2021-08-03 11:30:45 AM,-,1627982923486,
2021-08-03 11:30:45 AM,-,1627982923490,
2021-08-03 11:30:45 AM,-,1627982923493,
2021-08-03 11:30:45 AM,-,1627982923496,
2021-08-03 11:30:45 AM,-,1627982923500,
2021-08-03 11:30:45 AM,-,1627982923503,
2021-08-03 11:30:45 AM,-,1627982923506,
2021-08-03 11:30:45 AM,-,1627982923510,
2021-08-03 11:30:45 AM,-,1627982923513,
2021-08-03 11:30:45 AM,-,1627982923516,
2021-08-03 11:30:45 AM,-,1627982923520,
2021-08-03 11:30:45 AM,-,1627982923523,
2021-08-03 11:30:45 AM,-,1627982923526,
2021-08-03 11:30:45 AM,-,1627982923530,
2021-08-03 11:30:45 AM,-,1627982923533,
2021-08-03 11:30:45 AM,-,1627982923536,
2021-08-03 11:30:45 AM,-,1627982923540,
2021-08-03 11:30:45 AM,-,1627982923543,
2021-08-03 11:30:45 AM,-,1627982923546,
2021-08-03 11:30:45 AM,-,1627982923550,
2021-08-03 11:30:45 AM,-,1627982923553,
2021-08-03 11:30:45 AM,-,1627982923556,
2021-08-03 11:30:45 AM,-,1627982923560,
2021-08-03 11:30:45 AM,-,1627982923563,
2021-08-03 11:30:45 AM,-,1627982923566,
2021-08-03 11:30:45 AM,-,1627982923570,
2021-08-03 11:30:45 AM,-,1627982923573,
2021-08-03 11:30:45 AM,-,1627982923576,
2021-08-03 11:30:45 AM,-,1627982923580,
2021-08-03 11:30:45 AM,-,1627982923583,
2021-08-03 11:30:45 AM,-,1627982923586,
2021-08-03 11:30:45 AM,-,1627982923590,
2021-08-03 11:30:45 AM,-,1627982923593,
2021-08-03 11:30:45 AM,-,1627982923596,
2021-08-03 11:30:45 AM,-,1627982923600,
2021-08-03 11:30:45 AM,-,1627982923603,
2021-08-03 11:30:45 AM,-,1627982923606,
2021-08-03 11:30:45 AM,-,1627982923610,
2021-08-03 11:30:45 AM,-,1627982923613,
2021-08-03 11:30:45 AM,-,1627982923616,
2021-08-03 11:30:45 AM,-,1627982923620,
2021-08-03 11:30:45 AM,-,1627982923623,
2021-08-03 11:30:45 AM,-,1627982923626,
2021-08-03 11:30:45 AM,-,1627982923630,
2021-08-03 11:30:45 AM,-,1627982923633,
2021-08-03 11:30:45 AM,-,1627982923636,
2021-08-03 11:30:45 AM,-,1627982923640,
2021-08-03 11:30:45 AM,-,1627982923643,
2021-08-03 11:30:45 AM,-,1627982923646,
2021-08-03 11:30:45 AM,-,1627982923650,
2021-08-03 11:30:45 AM,-,1627982923653,
2021-08-03 11:30:45 AM,-,1627982923656,
2021-08-03 11:30:45 AM,-,1627982923660,
2021-08-03 11:30:45 AM,-,1627982923663,
2021-08-03 11:30:45 AM,-,1627982923666,
2021-08-03 11:30:45 AM,-,1627982923670,
2021-08-03 11:30:45 AM,-,1627982923673,
2021-08-03 11:30:45 AM,-,1627982923676,
2021-08-03 11:30:45 AM,-,1627982923680,
2021-08-03 11:30:45 AM,-,1627982923683,
2021-08-03 11:30:45 AM,-,1627982923686,
2021-08-03 11:30:45 AM,-,1627982923690,
2021-08-03 11:30:45 AM,-,1627982923693,
2021-08-03 11:30:45 AM,-,1627982923696,
2021-08-03 11:30:45 AM,-,1627982923700,
2021-08-03 11:30:45 AM,-,1627982923703,
2021-08-03 11:30:45 AM,-,1627982923706,
2021-08-03 11:30:45 AM,-,1627982923710,
2021-08-03 11:30:45 AM,-,1627982923713,
2021-08-03 11:30:45 AM,-,1627982923716,
2021-08-03 11:30:45 AM,-,1627982923720,
2021-08-03 11:30:45 AM,-,1627982923723,
2021-08-03 11:30:45 AM,-,1627982923726,
2021-08-03 11:30:45 AM,-,1627982923730,
2021-08-03 11:30:45 AM,-,1627982923733,
2021-08-03 11:30:45 AM,-,1627982923736,
2021-08-03 11:30:45 AM,-,1627982923740,
2021-08-03 11:30:45 AM,-,1627982923743,
2021-08-03 11:30:45 AM,-,1627982923746,
2021-08-03 11:30:45 AM,-,1627982923750,
2021-08-03 11:30:45 AM,-,1627982923753,
2021-08-03 11:30:45 AM,-,1627982923756,
2021-08-03 11:30:45 AM,-,1627982923760,
2021-08-03 11:30:45 AM,-,1627982923763,
2021-08-03 11:30:45 AM,-,1627982923766,
2021-08-03 11:30:45 AM,-,1627982923770,
2021-08-03 11:30:45 AM,-,1627982923773,
2021-08-03 11:30:45 AM,-,1627982923776,
2021-08-03 11:30:45 AM,-,1627982923780,
2021-08-03 11:30:45 AM,-,1627982923783,
2021-08-03 11:30:45 AM,-,1627982923786,
2021-08-03 11:30:45 AM,-,1627982923790,
2021-08-03 11:30:45 AM,-,1627982923793,
2021-08-03 11:30:45 AM,-,1627982923796,
2021-08-03 11:30:45 AM,-,1627982923800,
2021-08-03 11:30:45 AM,-,1627982923803,
2021-08-03 11:30:45 AM,-,1627982923806,
2021-08-03 11:30:45 AM,-,1627982923810,
2021-08-03 11:30:45 AM,-,1627982923813,
2021-08-03 11:30:45 AM,-,1627982923816,
2021-08-03 11:30:45 AM,-,1627982923820,
2021-08-03 11:30:45 AM,-,1627982923823,
2021-08-03 11:30:45 AM,-,1627982923826,
2021-08-03 11:30:45 AM,-,1627982923830,
2021-08-03 11:30:45 AM,-,1627982923833,
2021-08-03 11:30:45 AM,-,1627982923836,
2021-08-03 11:30:45 AM,-,1627982923840,
2021-08-03 11:30:45 AM,-,1627982923843,
2021-08-03 11:30:45 AM,-,1627982923846,
2021-08-03 11:30:45 AM,-,1627982923850,
2021-08-03 11:30:45 AM,-,1627982923853,
2021-08-03 11:30:45 AM,-,1627982923856,
2021-08-03 11:30:45 AM,-,1627982923860,
2021-08-03 11:30:45 AM,-,1627982923863,
2021-08-03 11:30:45 AM,-,1627982923866,
2021-08-03 11:30:45 AM,-,1627982923870,
2021-08-03 11:30:45 AM,-,1627982923873,
2021-08-03 11:30:45 AM,-,1627982923876,
2021-08-03 11:30:45 AM,-,1627982923880,
2021-08-03 11:30:45 AM,-,1627982923883,
2021-08-03 11:30:45 AM,-,1627982923886,
2021-08-03 11:30:45 AM,-,1627982923890,
2021-08-03 11:30:45 AM,-,1627982923893,
2021-08-03 11:30:45 AM,-,1627982923896,
2021-08-03 11:30:45 AM,-,1627982923900,
2021-08-03 11:30:45 AM,-,1627982923903,
2021-08-03 11:30:45 AM,-,1627982923906,
2021-08-03 11:30:45 AM,-,1627982923910,
2021-08-03 11:30:45 AM,-,1627982923913,
2021-08-03 11:30:45 AM,-,1627982923916,
2021-08-03 11:30:45 AM,-,1627982923920,
2021-08-03 11:30:45 AM,-,1627982923923,
2021-08-03 11:30:45 AM,-,1627982923926,
2021-08-03 11:30:45 AM,-,1627982923930,
2021-08-03 11:30:45 AM,-,1627982923933,
2021-08-03 11:30:45 AM,-,1627982923936,
2021-08-03 11:30:45 AM,-,1627982923940,
2021-08-03 11:30:45 AM,-,1627982923943,
2021-08-03 11:30:45 AM,-,1627982923946,
2021-08-03 11:30:45 AM,-,1627982923950,
2021-08-03 11:30:45 AM,-,1627982923953,
2021-08-03 11:30:45 AM,-,1627982923956,
2021-08-03 11:30:45 AM,-,1627982923960,
2021-08-03 11:30:45 AM,-,1627982923963,
2021-08-03 11:30:45 AM,-,1627982923966,
2021-08-03 11:30:45 AM,-,1627982923970,
2021-08-03 11:30:45 AM,-,1627982923973,
2021-08-03 11:30:45 AM,-,1627982923976,
2021-08-03 11:30:45 AM,-,1627982923980,
2021-08-03 11:30:45 AM,-,1627982923983,
2021-08-03 11:30:45 AM,-,1627982923986,
2021-08-03 11:30:45 AM,-,1627982923990,
2021-08-03 11:30:45 AM,-,1627982923993,
2021-08-03 11:30:45 AM,-,1627982923996,
2021-08-03 11:30:46 AM,-,1627982924000,
2021-08-03 11:30:46 AM,-,1627982924003,
2021-08-03 11:30:46 AM,-,1627982924006,
2021-08-03 11:30:46 AM,-,1627982924010,
2021-08-03 11:30:46 AM,-,1627982924013,
2021-08-03 11:30:46 AM,-,1627982924016,
2021-08-03 11:30:46 AM,-,1627982924020,
2021-08-03 11:30:46 AM,-,1627982924023,
2021-08-03 11:30:46 AM,-,1627982924026,
2021-08-03 11:30:46 AM,-,1627982924030,
2021-08-03 11:30:46 AM,-,1627982924033,
2021-08-03 11:30:46 AM,-,1627982924036,
2021-08-03 11:30:46 AM,-,1627982924040,
2021-08-03 11:30:46 AM,-,1627982924043,
2021-08-03 11:30:46 AM,-,1627982924046,
2021-08-03 11:30:46 AM,-,1627982924050,
2021-08-03 11:30:46 AM,-,1627982924053,
2021-08-03 11:30:46 AM,-,1627982924056,
2021-08-03 11:30:46 AM,-,1627982924060,
2021-08-03 11:30:46 AM,-,1627982924063,
2021-08-03 11:30:46 AM,-,1627982924066,
2021-08-03 11:30:46 AM,-,1627982924070,
2021-08-03 11:30:46 AM,-,1627982924073,
2021-08-03 11:30:46 AM,-,1627982924076,
2021-08-03 11:30:46 AM,-,1627982924080,
2021-08-03 11:30:46 AM,-,1627982924083,
2021-08-03 11:30:46 AM,-,1627982924086,
2021-08-03 11:30:46 AM,-,1627982924090,
2021-08-03 11:30:46 AM,-,1627982924093,
2021-08-03 11:30:46 AM,-,1627982924096,
2021-08-03 11:30:46 AM,-,1627982924100,
2021-08-03 11:30:46 AM,-,1627982924103,
2021-08-03 11:30:46 AM,-,1627982924106,
2021-08-03 11:30:46 AM,-,1627982924110,
2021-08-03 11:30:46 AM,-,1627982924113,
2021-08-03 11:30:46 AM,-,1627982924116,
2021-08-03 11:30:46 AM,-,1627982924120,
2021-08-03 11:30:46 AM,-,1627982924123,
2021-08-03 11:30:46 AM,-,1627982924126,
2021-08-03 11:30:46 AM,-,1627982924130,
2021-08-03 11:30:46 AM,-,1627982924133,
2021-08-03 11:30:46 AM,-,1627982924136,
2021-08-03 11:30:46 AM,-,1627982924140,
2021-08-03 11:30:46 AM,-,1627982924143,
2021-08-03 11:30:46 AM,-,1627982924146,
2021-08-03 11:30:46 AM,-,1627982924150,
2021-08-03 11:30:46 AM,-,1627982924153,
2021-08-03 11:30:46 AM,-,1627982924156,
2021-08-03 11:30:46 AM,-,1627982924160,
2021-08-03 11:30:46 AM,-,1627982924163,
2021-08-03 11:30:46 AM,-,1627982924166,
2021-08-03 11:30:46 AM,-,1627982924170,
2021-08-03 11:30:46 AM,-,1627982924173,
2021-08-03 11:30:46 AM,-,1627982924176,
2021-08-03 11:30:46 AM,-,1627982924180,
2021-08-03 11:30:46 AM,-,1627982924183,
2021-08-03 11:30:46 AM,-,1627982924186,
2021-08-03 11:30:46 AM,-,1627982924190,
2021-08-03 11:30:46 AM,-,1627982924193,
2021-08-03 11:30:46 AM,-,1627982924196,
2021-08-03 11:30:46 AM,-,1627982924200,
2021-08-03 11:30:46 AM,-,1627982924203,
2021-08-03 11:30:46 AM,-,1627982924206,
2021-08-03 11:30:46 AM,-,1627982924210,
2021-08-03 11:30:46 AM,-,1627982924213,
2021-08-03 11:30:46 AM,-,1627982924216,
2021-08-03 11:30:46 AM,-,1627982924220,
2021-08-03 11:30:46 AM,-,1627982924223,
2021-08-03 11:30:46 AM,-,1627982924226,
2021-08-03 11:30:46 AM,-,1627982924230,
2021-08-03 11:30:46 AM,-,1627982924233,
2021-08-03 11:30:46 AM,-,1627982924236,
2021-08-03 11:30:46 AM,-,1627982924240,
2021-08-03 11:30:46 AM,-,1627982924243,
2021-08-03 11:30:46 AM,-,1627982924246,
2021-08-03 11:30:46 AM,-,1627982924250,
2021-08-03 11:30:46 AM,-,1627982924253,
2021-08-03 11:30:46 AM,-,1627982924256,
2021-08-03 11:30:46 AM,-,1627982924260,
2021-08-03 11:30:46 AM,-,1627982924263,
2021-08-03 11:30:46 AM,-,1627982924266,
2021-08-03 11:30:46 AM,-,1627982924270,
2021-08-03 11:30:46 AM,-,1627982924273,
2021-08-03 11:30:46 AM,-,1627982924276,
2021-08-03 11:30:46 AM,-,1627982924280,
2021-08-03 11:30:46 AM,-,1627982924283,
2021-08-03 11:30:46 AM,-,1627982924286,
2021-08-03 11:30:46 AM,-,1627982924290,
2021-08-03 11:30:46 AM,-,1627982924293,
2021-08-03 11:30:46 AM,-,1627982924296,
2021-08-03 11:30:46 AM,-,1627982924300,
2021-08-03 11:30:46 AM,-,1627982924303,
2021-08-03 11:30:46 AM,-,1627982924306,
2021-08-03 11:30:46 AM,-,1627982924310,
2021-08-03 11:30:46 AM,-,1627982924313,
2021-08-03 11:30:46 AM,-,1627982924316,
2021-08-03 11:30:46 AM,-,1627982924320,
2021-08-03 11:30:46 AM,-,1627982924323,
2021-08-03 11:30:46 AM,-,1627982924326,
2021-08-03 11:30:46 AM,-,1627982924330,
2021-08-03 11:30:46 AM,-,1627982924333,
2021-08-03 11:30:46 AM,-,1627982924336,
2021-08-03 11:30:46 AM,-,1627982924340,
2021-08-03 11:30:46 AM,-,1627982924343,
2021-08-03 11:30:46 AM,-,1627982924346,
2021-08-03 11:30:46 AM,-,1627982924350,
2021-08-03 11:30:46 AM,-,1627982924353,
2021-08-03 11:30:46 AM,-,1627982924356,
2021-08-03 11:30:46 AM,-,1627982924360,
2021-08-03 11:30:46 AM,-,1627982924363,
2021-08-03 11:30:46 AM,-,1627982924366,
2021-08-03 11:30:46 AM,-,1627982924370,
2021-08-03 11:30:46 AM,-,1627982924373,
2021-08-03 11:30:46 AM,-,1627982924376,
2021-08-03 11:30:46 AM,-,1627982924380,
2021-08-03 11:30:46 AM,-,1627982924383,
2021-08-03 11:30:46 AM,-,1627982924386,
2021-08-03 11:30:46 AM,-,1627982924390,
2021-08-03 11:30:46 AM,-,1627982924393,
2021-08-03 11:30:46 AM,-,1627982924396,
2021-08-03 11:30:46 AM,-,1627982924400,
2021-08-03 11:30:46 AM,-,1627982924403,
2021-08-03 11:30:46 AM,-,1627982924406,
2021-08-03 11:30:46 AM,-,1627982924410,
2021-08-03 11:30:46 AM,-,1627982924413,
2021-08-03 11:30:46 AM,-,1627982924416,
2021-08-03 11:30:46 AM,-,1627982924420,
2021-08-03 11:30:46 AM,-,1627982924423,
2021-08-03 11:30:46 AM,-,1627982924426,
2021-08-03 11:30:46 AM,-,1627982924430,
2021-08-03 11:30:46 AM,-,1627982924433,
2021-08-03 11:30:46 AM,-,1627982924436,
2021-08-03 11:30:46 AM,-,1627982924440,
2021-08-03 11:30:46 AM,-,1627982924443,
2021-08-03 11:30:46 AM,-,1627982924446,
2021-08-03 11:30:46 AM,-,1627982924450,
2021-08-03 11:30:46 AM,-,1627982924453,
2021-08-03 11:30:46 AM,-,1627982924456,
2021-08-03 11:30:46 AM,-,1627982924460,
2021-08-03 11:30:46 AM,-,1627982924463,
2021-08-03 11:30:46 AM,-,1627982924466,
2021-08-03 11:30:46 AM,-,1627982924470,
2021-08-03 11:30:46 AM,-,1627982924473,
2021-08-03 11:30:46 AM,-,1627982924476,
2021-08-03 11:30:46 AM,-,1627982924480,
2021-08-03 11:30:46 AM,-,1627982924483,
2021-08-03 11:30:46 AM,-,1627982924486,
2021-08-03 11:30:46 AM,-,1627982924490,
2021-08-03 11:30:46 AM,-,1627982924493,
2021-08-03 11:30:46 AM,-,1627982924496,
2021-08-03 11:30:46 AM,-,1627982924500,
2021-08-03 11:30:46 AM,-,1627982924503,
2021-08-03 11:30:46 AM,-,1627982924506,
2021-08-03 11:30:46 AM,-,1627982924510,
2021-08-03 11:30:46 AM,-,1627982924513,
2021-08-03 11:30:46 AM,-,1627982924516,
2021-08-03 11:30:46 AM,-,1627982924520,
2021-08-03 11:30:46 AM,-,1627982924523,
2021-08-03 11:30:46 AM,-,1627982924526,
2021-08-03 11:30:46 AM,-,1627982924530,
2021-08-03 11:30:46 AM,-,1627982924533,
2021-08-03 11:30:46 AM,-,1627982924536,
2021-08-03 11:30:46 AM,-,1627982924540,
2021-08-03 11:30:46 AM,-,1627982924543,
2021-08-03 11:30:46 AM,-,1627982924546,
2021-08-03 11:30:46 AM,-,1627982924550,
2021-08-03 11:30:46 AM,-,1627982924553,
2021-08-03 11:30:46 AM,-,1627982924556,
2021-08-03 11:30:46 AM,-,1627982924560,
2021-08-03 11:30:46 AM,-,1627982924563,
2021-08-03 11:30:46 AM,-,1627982924566,
2021-08-03 11:30:46 AM,-,1627982924570,
2021-08-03 11:30:46 AM,-,1627982924573,
2021-08-03 11:30:46 AM,-,1627982924576,
2021-08-03 11:30:46 AM,-,1627982924580,
2021-08-03 11:30:46 AM,-,1627982924583,
2021-08-03 11:30:46 AM,-,1627982924586,
2021-08-03 11:30:46 AM,-,1627982924590,
2021-08-03 11:30:46 AM,-,1627982924593,
2021-08-03 11:30:46 AM,-,1627982924596,
2021-08-03 11:30:46 AM,-,1627982924600,
2021-08-03 11:30:46 AM,-,1627982924603,
2021-08-03 11:30:46 AM,-,1627982924606,
2021-08-03 11:30:46 AM,-,1627982924610,
2021-08-03 11:30:46 AM,-,1627982924613,
2021-08-03 11:30:46 AM,-,1627982924616,
2021-08-03 11:30:46 AM,-,1627982924620,
2021-08-03 11:30:46 AM,-,1627982924623,
2021-08-03 11:30:46 AM,-,1627982924626,
2021-08-03 11:30:46 AM,-,1627982924630,
2021-08-03 11:30:46 AM,-,1627982924633,
2021-08-03 11:30:46 AM,-,1627982924636,
2021-08-03 11:30:46 AM,-,1627982924640,
2021-08-03 11:30:46 AM,-,1627982924643,
2021-08-03 11:30:46 AM,-,1627982924646,
2021-08-03 11:30:46 AM,-,1627982924650,
2021-08-03 11:30:46 AM,-,1627982924653,
2021-08-03 11:30:46 AM,-,1627982924656,
2021-08-03 11:30:46 AM,-,1627982924660,
2021-08-03 11:30:46 AM,-,1627982924663,
2021-08-03 11:30:46 AM,-,1627982924666,
2021-08-03 11:30:46 AM,-,1627982924670,
2021-08-03 11:30:46 AM,-,1627982924673,
2021-08-03 11:30:46 AM,-,1627982924676,
2021-08-03 11:30:46 AM,-,1627982924680,
2021-08-03 11:30:46 AM,-,1627982924683,
2021-08-03 11:30:46 AM,-,1627982924686,
2021-08-03 11:30:46 AM,-,1627982924690,
2021-08-03 11:30:46 AM,-,1627982924693,
2021-08-03 11:30:46 AM,-,1627982924696,
2021-08-03 11:30:46 AM,-,1627982924700,
2021-08-03 11:30:46 AM,-,1627982924703,
2021-08-03 11:30:46 AM,-,1627982924706,
2021-08-03 11:30:46 AM,-,1627982924710,
2021-08-03 11:30:46 AM,-,1627982924713,
2021-08-03 11:30:46 AM,-,1627982924716,
2021-08-03 11:30:46 AM,-,1627982924720,
2021-08-03 11:30:46 AM,-,1627982924723,
2021-08-03 11:30:46 AM,-,1627982924726,
2021-08-03 11:30:46 AM,-,1627982924730,
2021-08-03 11:30:46 AM,-,1627982924733,
2021-08-03 11:30:46 AM,-,1627982924736,
2021-08-03 11:30:46 AM,-,1627982924740,
2021-08-03 11:30:46 AM,-,1627982924743,
2021-08-03 11:30:46 AM,-,1627982924746,
2021-08-03 11:30:46 AM,-,1627982924750,
2021-08-03 11:30:46 AM,-,1627982924753,
2021-08-03 11:30:46 AM,-,1627982924756,
2021-08-03 11:30:46 AM,-,1627982924760,
2021-08-03 11:30:46 AM,-,1627982924763,
2021-08-03 11:30:46 AM,-,1627982924766,
2021-08-03 11:30:46 AM,-,1627982924770,
2021-08-03 11:30:46 AM,-,1627982924773,
2021-08-03 11:30:46 AM,-,1627982924776,
2021-08-03 11:30:46 AM,-,1627982924780,
2021-08-03 11:30:46 AM,-,1627982924783,
2021-08-03 11:30:46 AM,-,1627982924786,
2021-08-03 11:30:46 AM,-,1627982924790,
2021-08-03 11:30:46 AM,-,1627982924793,
2021-08-03 11:30:46 AM,-,1627982924796,
2021-08-03 11:30:46 AM,-,1627982924800,
2021-08-03 11:30:46 AM,-,1627982924803,
2021-08-03 11:30:46 AM,-,1627982924806,
2021-08-03 11:30:46 AM,-,1627982924810,
2021-08-03 11:30:46 AM,-,1627982924813,
2021-08-03 11:30:46 AM,-,1627982924816,
2021-08-03 11:30:46 AM,-,1627982924820,
2021-08-03 11:30:46 AM,-,1627982924823,
2021-08-03 11:30:46 AM,-,1627982924826,
2021-08-03 11:30:46 AM,-,1627982924830,
2021-08-03 11:30:46 AM,-,1627982924833,
2021-08-03 11:30:46 AM,-,1627982924836,
2021-08-03 11:30:46 AM,-,1627982924840,
2021-08-03 11:30:46 AM,-,1627982924843,
2021-08-03 11:30:46 AM,-,1627982924846,
2021-08-03 11:30:46 AM,-,1627982924850,
2021-08-03 11:30:46 AM,-,1627982924853,
2021-08-03 11:30:46 AM,-,1627982924856,
2021-08-03 11:30:46 AM,-,1627982924860,
2021-08-03 11:30:46 AM,-,1627982924863,
2021-08-03 11:30:46 AM,-,1627982924866,
2021-08-03 11:30:46 AM,-,1627982924870,
2021-08-03 11:30:46 AM,-,1627982924873,
2021-08-03 11:30:46 AM,-,1627982924876,
2021-08-03 11:30:46 AM,-,1627982924880,
2021-08-03 11:30:46 AM,-,1627982924883,
2021-08-03 11:30:46 AM,-,1627982924886,
2021-08-03 11:30:46 AM,-,1627982924890,
2021-08-03 11:30:46 AM,-,1627982924893,
2021-08-03 11:30:46 AM,-,1627982924896,
2021-08-03 11:30:46 AM,-,1627982924900,
2021-08-03 11:30:46 AM,-,1627982924903,
2021-08-03 11:30:46 AM,-,1627982924906,
2021-08-03 11:30:46 AM,-,1627982924910,
2021-08-03 11:30:46 AM,-,1627982924913,
2021-08-03 11:30:46 AM,-,1627982924916,
2021-08-03 11:30:46 AM,-,1627982924920,
2021-08-03 11:30:46 AM,-,1627982924923,
2021-08-03 11:30:46 AM,-,1627982924926,
2021-08-03 11:30:46 AM,-,1627982924930,
2021-08-03 11:30:46 AM,-,1627982924933,
2021-08-03 11:30:46 AM,-,1627982924936,
2021-08-03 11:30:46 AM,-,1627982924940,
2021-08-03 11:30:46 AM,-,1627982924943,
2021-08-03 11:30:46 AM,-,1627982924946,
2021-08-03 11:30:46 AM,-,1627982924950,
2021-08-03 11:30:46 AM,-,1627982924953,
2021-08-03 11:30:46 AM,-,1627982924956,
2021-08-03 11:30:46 AM,-,1627982924960,
2021-08-03 11:30:46 AM,-,1627982924963,
2021-08-03 11:30:46 AM,-,1627982924966,
2021-08-03 11:30:46 AM,-,1627982924970,
2021-08-03 11:30:46 AM,-,1627982924973,
2021-08-03 11:30:46 AM,-,1627982924976,
2021-08-03 11:30:46 AM,-,1627982924980,
2021-08-03 11:30:46 AM,-,1627982924983,
2021-08-03 11:30:46 AM,-,1627982924986,
2021-08-03 11:30:46 AM,-,1627982924990,
2021-08-03 11:30:46 AM,-,1627982924993,
2021-08-03 11:30:46 AM,-,1627982924996,
2021-08-03 11:30:47 AM,-,1627982925000,
2021-08-03 11:30:47 AM,-,1627982925003,
2021-08-03 11:30:47 AM,-,1627982925006,
2021-08-03 11:30:47 AM,-,1627982925010,
2021-08-03 11:30:47 AM,-,1627982925013,
2021-08-03 11:30:47 AM,-,1627982925016,
2021-08-03 11:30:47 AM,-,1627982925020,
2021-08-03 11:30:47 AM,-,1627982925023,
2021-08-03 11:30:47 AM,-,1627982925026,
2021-08-03 11:30:47 AM,-,1627982925030,
2021-08-03 11:30:47 AM,-,1627982925033,
2021-08-03 11:30:47 AM,-,1627982925036,
2021-08-03 11:30:47 AM,-,1627982925040,
2021-08-03 11:30:47 AM,-,1627982925043,
2021-08-03 11:30:47 AM,-,1627982925046,
2021-08-03 11:30:47 AM,-,1627982925050,
2021-08-03 11:30:47 AM,-,1627982925053,
2021-08-03 11:30:47 AM,-,1627982925056,
2021-08-03 11:30:47 AM,-,1627982925060,
2021-08-03 11:30:47 AM,-,1627982925063,
2021-08-03 11:30:47 AM,-,1627982925066,
2021-08-03 11:30:47 AM,-,1627982925070,
2021-08-03 11:30:47 AM,-,1627982925073,
2021-08-03 11:30:47 AM,-,1627982925076,
2021-08-03 11:30:47 AM,-,1627982925080,
2021-08-03 11:30:47 AM,-,1627982925083,
2021-08-03 11:30:47 AM,-,1627982925086,
2021-08-03 11:30:47 AM,-,1627982925090,
2021-08-03 11:30:47 AM,-,1627982925093,
2021-08-03 11:30:47 AM,-,1627982925096,
2021-08-03 11:30:47 AM,-,1627982925100,
2021-08-03 11:30:47 AM,-,1627982925103,
2021-08-03 11:30:47 AM,-,1627982925106,
2021-08-03 11:30:47 AM,-,1627982925110,
2021-08-03 11:30:47 AM,-,1627982925113,
2021-08-03 11:30:47 AM,-,1627982925116,
2021-08-03 11:30:47 AM,-,1627982925120,
2021-08-03 11:30:47 AM,-,1627982925123,
2021-08-03 11:30:47 AM,-,1627982925126,
2021-08-03 11:30:47 AM,-,1627982925130,
2021-08-03 11:30:47 AM,-,1627982925133,
2021-08-03 11:30:47 AM,-,1627982925136,
2021-08-03 11:30:47 AM,-,1627982925140,
2021-08-03 11:30:47 AM,-,1627982925143,
2021-08-03 11:30:47 AM,-,1627982925146,
2021-08-03 11:30:47 AM,-,1627982925150,
2021-08-03 11:30:47 AM,-,1627982925153,
2021-08-03 11:30:47 AM,-,1627982925156,
2021-08-03 11:30:47 AM,-,1627982925160,
2021-08-03 11:30:47 AM,-,1627982925163,
2021-08-03 11:30:47 AM,-,1627982925166,
2021-08-03 11:30:47 AM,-,1627982925170,
2021-08-03 11:30:47 AM,-,1627982925173,
2021-08-03 11:30:47 AM,-,1627982925176,
2021-08-03 11:30:47 AM,-,1627982925180,
2021-08-03 11:30:47 AM,-,1627982925183,
2021-08-03 11:30:47 AM,-,1627982925186,
2021-08-03 11:30:47 AM,-,1627982925190,
2021-08-03 11:30:47 AM,-,1627982925193,
2021-08-03 11:30:47 AM,-,1627982925196,
2021-08-03 11:30:47 AM,-,1627982925200,
2021-08-03 11:30:47 AM,-,1627982925203,
2021-08-03 11:30:47 AM,-,1627982925206,
2021-08-03 11:30:47 AM,-,1627982925210,
2021-08-03 11:30:47 AM,-,1627982925213,
2021-08-03 11:30:47 AM,-,1627982925216,
2021-08-03 11:30:47 AM,-,1627982925220,
2021-08-03 11:30:47 AM,-,1627982925223,
2021-08-03 11:30:47 AM,-,1627982925226,
2021-08-03 11:30:47 AM,-,1627982925230,
2021-08-03 11:30:47 AM,-,1627982925233,
2021-08-03 11:30:47 AM,-,1627982925236,
2021-08-03 11:30:47 AM,-,1627982925240,
2021-08-03 11:30:47 AM,-,1627982925243,
2021-08-03 11:30:47 AM,-,1627982925246,
2021-08-03 11:30:47 AM,-,1627982925250,
2021-08-03 11:30:47 AM,-,1627982925253,
2021-08-03 11:30:47 AM,-,1627982925256,
2021-08-03 11:30:47 AM,-,1627982925260,
2021-08-03 11:30:47 AM,-,1627982925263,
2021-08-03 11:30:47 AM,-,1627982925266,
2021-08-03 11:30:47 AM,-,1627982925270,
2021-08-03 11:30:47 AM,-,1627982925273,
2021-08-03 11:30:47 AM,-,1627982925276,
2021-08-03 11:30:47 AM,-,1627982925280,
2021-08-03 11:30:47 AM,-,1627982925283,
2021-08-03 11:30:47 AM,-,1627982925286,
2021-08-03 11:30:47 AM,-,1627982925290,
2021-08-03 11:30:47 AM,-,1627982925293,
2021-08-03 11:30:47 AM,-,1627982925296,
2021-08-03 11:30:47 AM,-,1627982925300,
2021-08-03 11:30:47 AM,-,1627982925303,
2021-08-03 11:30:47 AM,-,1627982925306,
2021-08-03 11:30:47 AM,-,1627982925310,
2021-08-03 11:30:47 AM,-,1627982925313,
2021-08-03 11:30:47 AM,-,1627982925316,
2021-08-03 11:30:47 AM,-,1627982925320,
2021-08-03 11:30:47 AM,-,1627982925323,
2021-08-03 11:30:47 AM,-,1627982925326,
2021-08-03 11:30:47 AM,-,1627982925330,
2021-08-03 11:30:47 AM,-,1627982925333,
2021-08-03 11:30:47 AM,-,1627982925336,
2021-08-03 11:30:47 AM,-,1627982925340,
2021-08-03 11:30:47 AM,-,1627982925343,
2021-08-03 11:30:47 AM,-,1627982925346,
2021-08-03 11:30:47 AM,-,1627982925350,
2021-08-03 11:30:47 AM,-,1627982925353,
2021-08-03 11:30:47 AM,-,1627982925356,
2021-08-03 11:30:47 AM,-,1627982925360,
2021-08-03 11:30:47 AM,-,1627982925363,
2021-08-03 11:30:47 AM,-,1627982925366,
2021-08-03 11:30:47 AM,-,1627982925370,
2021-08-03 11:30:47 AM,-,1627982925373,
2021-08-03 11:30:47 AM,-,1627982925376,
2021-08-03 11:30:47 AM,-,1627982925380,
2021-08-03 11:30:47 AM,-,1627982925383,
2021-08-03 11:30:47 AM,-,1627982925386,
2021-08-03 11:30:47 AM,-,1627982925390,
2021-08-03 11:30:47 AM,-,1627982925393,
2021-08-03 11:30:47 AM,-,1627982925396,
2021-08-03 11:30:47 AM,-,1627982925400,
2021-08-03 11:30:47 AM,-,1627982925403,
2021-08-03 11:30:47 AM,-,1627982925406,
2021-08-03 11:30:47 AM,-,1627982925410,
2021-08-03 11:30:47 AM,-,1627982925413,
2021-08-03 11:30:47 AM,-,1627982925416,
2021-08-03 11:30:47 AM,-,1627982925420,
2021-08-03 11:30:47 AM,-,1627982925423,
2021-08-03 11:30:47 AM,-,1627982925426,
2021-08-03 11:30:47 AM,-,1627982925430,
2021-08-03 11:30:47 AM,-,1627982925433,
2021-08-03 11:30:47 AM,-,1627982925436,
2021-08-03 11:30:47 AM,-,1627982925440,
2021-08-03 11:30:47 AM,-,1627982925443,
2021-08-03 11:30:47 AM,-,1627982925446,
2021-08-03 11:30:47 AM,-,1627982925450,
2021-08-03 11:30:47 AM,-,1627982925453,
2021-08-03 11:30:47 AM,-,1627982925456,
2021-08-03 11:30:47 AM,-,1627982925460,
2021-08-03 11:30:47 AM,-,1627982925463,
2021-08-03 11:30:47 AM,-,1627982925466,
2021-08-03 11:30:47 AM,-,1627982925470,
2021-08-03 11:30:47 AM,-,1627982925473,
2021-08-03 11:30:47 AM,-,1627982925476,
2021-08-03 11:30:47 AM,-,1627982925480,
2021-08-03 11:30:47 AM,-,1627982925483,
2021-08-03 11:30:47 AM,-,1627982925486,
2021-08-03 11:30:47 AM,-,1627982925490,
2021-08-03 11:30:47 AM,-,1627982925493,
2021-08-03 11:30:47 AM,-,1627982925496,
2021-08-03 11:30:47 AM,-,1627982925500,
2021-08-03 11:30:47 AM,-,1627982925503,
2021-08-03 11:30:47 AM,-,1627982925506,
2021-08-03 11:30:47 AM,-,1627982925510,
2021-08-03 11:30:47 AM,-,1627982925513,
2021-08-03 11:30:47 AM,-,1627982925516,
2021-08-03 11:30:47 AM,-,1627982925520,
2021-08-03 11:30:47 AM,-,1627982925523,
2021-08-03 11:30:47 AM,-,1627982925526,
2021-08-03 11:30:47 AM,-,1627982925530,
2021-08-03 11:30:47 AM,-,1627982925533,
2021-08-03 11:30:47 AM,-,1627982925536,
2021-08-03 11:30:47 AM,-,1627982925540,
2021-08-03 11:30:47 AM,-,1627982925543,
2021-08-03 11:30:47 AM,-,1627982925546,
2021-08-03 11:30:47 AM,-,1627982925550,
2021-08-03 11:30:47 AM,-,1627982925553,
2021-08-03 11:30:47 AM,-,1627982925556,
2021-08-03 11:30:47 AM,-,1627982925560,
2021-08-03 11:30:47 AM,-,1627982925563,
2021-08-03 11:30:47 AM,-,1627982925566,
2021-08-03 11:30:47 AM,-,1627982925570,
2021-08-03 11:30:47 AM,-,1627982925573,
2021-08-03 11:30:47 AM,-,1627982925576,
2021-08-03 11:30:47 AM,-,1627982925580,
2021-08-03 11:30:47 AM,-,1627982925583,
2021-08-03 11:30:47 AM,-,1627982925586,
2021-08-03 11:30:47 AM,-,1627982925590,
2021-08-03 11:30:47 AM,-,1627982925593,
2021-08-03 11:30:47 AM,-,1627982925596,
2021-08-03 11:30:47 AM,-,1627982925600,
2021-08-03 11:30:47 AM,-,1627982925603,
2021-08-03 11:30:47 AM,-,1627982925606,
2021-08-03 11:30:47 AM,-,1627982925610,
2021-08-03 11:30:47 AM,-,1627982925613,
2021-08-03 11:30:47 AM,-,1627982925616,
2021-08-03 11:30:47 AM,-,1627982925620,
2021-08-03 11:30:47 AM,-,1627982925623,
2021-08-03 11:30:47 AM,-,1627982925626,
2021-08-03 11:30:47 AM,-,1627982925630,
2021-08-03 11:30:47 AM,-,1627982925633,
2021-08-03 11:30:47 AM,-,1627982925636,
2021-08-03 11:30:47 AM,-,1627982925640,
2021-08-03 11:30:47 AM,-,1627982925643,
2021-08-03 11:30:47 AM,-,1627982925646,
2021-08-03 11:30:47 AM,-,1627982925650,
2021-08-03 11:30:47 AM,-,1627982925653,
2021-08-03 11:30:47 AM,-,1627982925656,
2021-08-03 11:30:47 AM,-,1627982925660,
2021-08-03 11:30:47 AM,-,1627982925663,
2021-08-03 11:30:47 AM,-,1627982925666,
2021-08-03 11:30:47 AM,-,1627982925670,
2021-08-03 11:30:47 AM,-,1627982925673,
2021-08-03 11:30:47 AM,-,1627982925676,
2021-08-03 11:30:47 AM,-,1627982925680,
2021-08-03 11:30:47 AM,-,1627982925683,
2021-08-03 11:30:47 AM,-,1627982925686,
2021-08-03 11:30:47 AM,-,1627982925690,
2021-08-03 11:30:47 AM,-,1627982925693,
2021-08-03 11:30:47 AM,-,1627982925696,
2021-08-03 11:30:47 AM,-,1627982925700,
2021-08-03 11:30:47 AM,-,1627982925703,
2021-08-03 11:30:47 AM,-,1627982925706,
2021-08-03 11:30:47 AM,-,1627982925710,
2021-08-03 11:30:47 AM,-,1627982925713,
2021-08-03 11:30:47 AM,-,1627982925716,
2021-08-03 11:30:47 AM,-,1627982925720,
2021-08-03 11:30:47 AM,-,1627982925723,
2021-08-03 11:30:47 AM,-,1627982925726,
2021-08-03 11:30:47 AM,-,1627982925730,
2021-08-03 11:30:47 AM,-,1627982925733,
2021-08-03 11:30:47 AM,-,1627982925736,
2021-08-03 11:30:47 AM,-,1627982925740,
2021-08-03 11:30:47 AM,-,1627982925743,
2021-08-03 11:30:47 AM,-,1627982925746,
2021-08-03 11:30:47 AM,-,1627982925750,
2021-08-03 11:30:47 AM,-,1627982925753,
2021-08-03 11:30:47 AM,-,1627982925756,
2021-08-03 11:30:47 AM,-,1627982925760,
2021-08-03 11:30:47 AM,-,1627982925763,
2021-08-03 11:30:47 AM,-,1627982925766,
2021-08-03 11:30:47 AM,-,1627982925770,
2021-08-03 11:30:47 AM,-,1627982925773,
2021-08-03 11:30:47 AM,-,1627982925776,
2021-08-03 11:30:47 AM,-,1627982925780,
2021-08-03 11:30:47 AM,-,1627982925783,
2021-08-03 11:30:47 AM,-,1627982925786,
2021-08-03 11:30:47 AM,-,1627982925790,
2021-08-03 11:30:47 AM,-,1627982925793,
2021-08-03 11:30:47 AM,-,1627982925796,
2021-08-03 11:30:47 AM,-,1627982925800,
2021-08-03 11:30:47 AM,-,1627982925803,
2021-08-03 11:30:47 AM,-,1627982925806,
2021-08-03 11:30:47 AM,-,1627982925810,
2021-08-03 11:30:47 AM,-,1627982925813,
2021-08-03 11:30:47 AM,-,1627982925816,
2021-08-03 11:30:47 AM,-,1627982925820,
2021-08-03 11:30:47 AM,-,1627982925823,
2021-08-03 11:30:47 AM,-,1627982925826,
2021-08-03 11:30:47 AM,-,1627982925830,
2021-08-03 11:30:47 AM,-,1627982925833,
2021-08-03 11:30:47 AM,-,1627982925836,
2021-08-03 11:30:47 AM,-,1627982925840,
2021-08-03 11:30:47 AM,-,1627982925843,
2021-08-03 11:30:47 AM,-,1627982925846,
2021-08-03 11:30:47 AM,-,1627982925850,
2021-08-03 11:30:47 AM,-,1627982925853,
2021-08-03 11:30:47 AM,-,1627982925856,
2021-08-03 11:30:47 AM,-,1627982925860,
2021-08-03 11:30:47 AM,-,1627982925863,
2021-08-03 11:30:47 AM,-,1627982925866,
2021-08-03 11:30:47 AM,-,1627982925870,
2021-08-03 11:30:47 AM,-,1627982925873,
2021-08-03 11:30:47 AM,-,1627982925876,
2021-08-03 11:30:47 AM,-,1627982925880,
2021-08-03 11:30:47 AM,-,1627982925883,
2021-08-03 11:30:47 AM,-,1627982925886,
2021-08-03 11:30:47 AM,-,1627982925890,
2021-08-03 11:30:47 AM,-,1627982925893,
2021-08-03 11:30:47 AM,-,1627982925896,
2021-08-03 11:30:47 AM,-,1627982925900,
2021-08-03 11:30:47 AM,-,1627982925903,
2021-08-03 11:30:47 AM,-,1627982925906,
2021-08-03 11:30:47 AM,-,1627982925910,
2021-08-03 11:30:47 AM,-,1627982925913,
2021-08-03 11:30:47 AM,-,1627982925916,
2021-08-03 11:30:47 AM,-,1627982925920,
2021-08-03 11:30:47 AM,-,1627982925923,
2021-08-03 11:30:47 AM,-,1627982925926,
2021-08-03 11:30:47 AM,-,1627982925930,
2021-08-03 11:30:47 AM,-,1627982925933,
2021-08-03 11:30:47 AM,-,1627982925936,
2021-08-03 11:30:47 AM,-,1627982925940,
2021-08-03 11:30:47 AM,-,1627982925943,
2021-08-03 11:30:47 AM,-,1627982925946,
2021-08-03 11:30:47 AM,-,1627982925950,
2021-08-03 11:30:47 AM,-,1627982925953,
2021-08-03 11:30:47 AM,-,1627982925956,
2021-08-03 11:30:47 AM,-,1627982925960,
2021-08-03 11:30:47 AM,-,1627982925963,
2021-08-03 11:30:47 AM,-,1627982925966,
2021-08-03 11:30:47 AM,-,1627982925970,
2021-08-03 11:30:47 AM,-,1627982925973,
2021-08-03 11:30:47 AM,-,1627982925976,
2021-08-03 11:30:47 AM,-,1627982925980,
2021-08-03 11:30:47 AM,-,1627982925983,
2021-08-03 11:30:47 AM,-,1627982925986,
2021-08-03 11:30:47 AM,-,1627982925990,
2021-08-03 11:30:47 AM,-,1627982925993,
2021-08-03 11:30:47 AM,-,1627982925996,
2021-08-03 11:30:48 AM,-,1627982926000,
2021-08-03 11:30:48 AM,-,1627982926003,
2021-08-03 11:30:48 AM,-,1627982926006,
2021-08-03 11:30:48 AM,-,1627982926010,
2021-08-03 11:30:48 AM,-,1627982926013,
2021-08-03 11:30:48 AM,-,1627982926016,
2021-08-03 11:30:48 AM,-,1627982926020,
2021-08-03 11:30:48 AM,-,1627982926023,
2021-08-03 11:30:48 AM,-,1627982926026,
2021-08-03 11:30:48 AM,-,1627982926030,
2021-08-03 11:30:48 AM,-,1627982926033,
2021-08-03 11:30:48 AM,-,1627982926036,
2021-08-03 11:30:48 AM,-,1627982926040,
2021-08-03 11:30:48 AM,-,1627982926043,
2021-08-03 11:30:48 AM,-,1627982926046,
2021-08-03 11:30:48 AM,-,1627982926050,
2021-08-03 11:30:48 AM,-,1627982926053,
2021-08-03 11:30:48 AM,-,1627982926056,
2021-08-03 11:30:48 AM,-,1627982926060,
2021-08-03 11:30:48 AM,-,1627982926063,
2021-08-03 11:30:48 AM,-,1627982926066,
2021-08-03 11:30:48 AM,-,1627982926070,
2021-08-03 11:30:48 AM,-,1627982926073,
2021-08-03 11:30:48 AM,-,1627982926076,
2021-08-03 11:30:48 AM,-,1627982926080,
2021-08-03 11:30:48 AM,-,1627982926083,
2021-08-03 11:30:48 AM,-,1627982926086,
2021-08-03 11:30:48 AM,-,1627982926090,
2021-08-03 11:30:48 AM,-,1627982926093,
2021-08-03 11:30:48 AM,-,1627982926096,
2021-08-03 11:30:48 AM,-,1627982926100,
2021-08-03 11:30:48 AM,-,1627982926103,
2021-08-03 11:30:48 AM,-,1627982926106,
2021-08-03 11:30:48 AM,-,1627982926110,
2021-08-03 11:30:48 AM,-,1627982926113,
2021-08-03 11:30:48 AM,-,1627982926116,
2021-08-03 11:30:48 AM,-,1627982926120,
2021-08-03 11:30:48 AM,-,1627982926123,
2021-08-03 11:30:48 AM,-,1627982926126,
2021-08-03 11:30:48 AM,-,1627982926130,
2021-08-03 11:30:48 AM,-,1627982926133,
2021-08-03 11:30:48 AM,-,1627982926136,
2021-08-03 11:30:48 AM,-,1627982926140,
2021-08-03 11:30:48 AM,-,1627982926143,
2021-08-03 11:30:48 AM,-,1627982926146,
2021-08-03 11:30:48 AM,-,1627982926150,
2021-08-03 11:30:48 AM,-,1627982926153,
2021-08-03 11:30:48 AM,-,1627982926156,
2021-08-03 11:30:48 AM,-,1627982926160,
2021-08-03 11:30:48 AM,-,1627982926163,
2021-08-03 11:30:48 AM,-,1627982926166,
2021-08-03 11:30:48 AM,-,1627982926170,
2021-08-03 11:30:48 AM,-,1627982926173,
2021-08-03 11:30:48 AM,-,1627982926176,
2021-08-03 11:30:48 AM,-,1627982926180,
2021-08-03 11:30:48 AM,-,1627982926183,
2021-08-03 11:30:48 AM,-,1627982926186,
2021-08-03 11:30:48 AM,-,1627982926190,
2021-08-03 11:30:48 AM,-,1627982926193,
2021-08-03 11:30:48 AM,-,1627982926196,
2021-08-03 11:30:48 AM,-,1627982926200,
2021-08-03 11:30:48 AM,-,1627982926203,
2021-08-03 11:30:48 AM,-,1627982926206,
2021-08-03 11:30:48 AM,-,1627982926210,
2021-08-03 11:30:48 AM,-,1627982926213,
2021-08-03 11:30:48 AM,-,1627982926216,
2021-08-03 11:30:48 AM,-,1627982926220,
2021-08-03 11:30:48 AM,-,1627982926223,
2021-08-03 11:30:48 AM,-,1627982926226,
2021-08-03 11:30:48 AM,-,1627982926230,
2021-08-03 11:30:48 AM,-,1627982926233,
2021-08-03 11:30:48 AM,-,1627982926236,
2021-08-03 11:30:48 AM,-,1627982926240,
2021-08-03 11:30:48 AM,-,1627982926243,
2021-08-03 11:30:48 AM,-,1627982926246,
2021-08-03 11:30:48 AM,-,1627982926250,
2021-08-03 11:30:48 AM,-,1627982926253,
2021-08-03 11:30:48 AM,-,1627982926256,
2021-08-03 11:30:48 AM,-,1627982926260,
2021-08-03 11:30:48 AM,-,1627982926263,
2021-08-03 11:30:48 AM,-,1627982926266,
2021-08-03 11:30:48 AM,-,1627982926270,
2021-08-03 11:30:48 AM,-,1627982926273,
2021-08-03 11:30:48 AM,-,1627982926276,
2021-08-03 11:30:48 AM,-,1627982926280,
2021-08-03 11:30:48 AM,-,1627982926283,
2021-08-03 11:30:48 AM,-,1627982926286,
2021-08-03 11:30:48 AM,-,1627982926290,
2021-08-03 11:30:48 AM,-,1627982926293,
2021-08-03 11:30:48 AM,-,1627982926296,
2021-08-03 11:30:48 AM,-,1627982926300,
2021-08-03 11:30:48 AM,-,1627982926303,
2021-08-03 11:30:48 AM,-,1627982926306,
2021-08-03 11:30:48 AM,-,1627982926310,
2021-08-03 11:30:48 AM,-,1627982926313,
2021-08-03 11:30:48 AM,-,1627982926316,
2021-08-03 11:30:48 AM,-,1627982926320,
2021-08-03 11:30:48 AM,-,1627982926323,
2021-08-03 11:30:48 AM,-,1627982926326,
2021-08-03 11:30:48 AM,-,1627982926330,
2021-08-03 11:30:48 AM,-,1627982926333,
2021-08-03 11:30:48 AM,-,1627982926336,
2021-08-03 11:30:48 AM,-,1627982926340,
2021-08-03 11:30:48 AM,-,1627982926343,
2021-08-03 11:30:48 AM,-,1627982926346,
2021-08-03 11:30:48 AM,-,1627982926350,
2021-08-03 11:30:48 AM,-,1627982926353,
2021-08-03 11:30:48 AM,-,1627982926356,
2021-08-03 11:30:48 AM,-,1627982926360,
2021-08-03 11:30:48 AM,-,1627982926363,
2021-08-03 11:30:48 AM,-,1627982926366,
2021-08-03 11:30:48 AM,-,1627982926370,
2021-08-03 11:30:48 AM,-,1627982926373,
2021-08-03 11:30:48 AM,-,1627982926376,
2021-08-03 11:30:48 AM,-,1627982926380,
2021-08-03 11:30:48 AM,-,1627982926383,
2021-08-03 11:30:48 AM,-,1627982926386,
2021-08-03 11:30:48 AM,-,1627982926390,
2021-08-03 11:30:48 AM,-,1627982926393,
2021-08-03 11:30:48 AM,-,1627982926396,
2021-08-03 11:30:48 AM,-,1627982926400,
2021-08-03 11:30:48 AM,-,1627982926403,
2021-08-03 11:30:48 AM,-,1627982926406,
2021-08-03 11:30:48 AM,-,1627982926410,
2021-08-03 11:30:48 AM,-,1627982926413,
2021-08-03 11:30:48 AM,-,1627982926416,
2021-08-03 11:30:48 AM,-,1627982926420,
2021-08-03 11:30:48 AM,-,1627982926423,
2021-08-03 11:30:48 AM,-,1627982926426,
2021-08-03 11:30:48 AM,-,1627982926430,
2021-08-03 11:30:48 AM,-,1627982926433,
2021-08-03 11:30:48 AM,-,1627982926436,
2021-08-03 11:30:48 AM,-,1627982926440,
2021-08-03 11:30:48 AM,-,1627982926443,
2021-08-03 11:30:48 AM,-,1627982926446,
2021-08-03 11:30:48 AM,-,1627982926450,
2021-08-03 11:30:48 AM,-,1627982926453,
2021-08-03 11:30:48 AM,-,1627982926456,
2021-08-03 11:30:48 AM,-,1627982926460,
2021-08-03 11:30:48 AM,-,1627982926463,
2021-08-03 11:30:48 AM,-,1627982926466,
2021-08-03 11:30:48 AM,-,1627982926470,
2021-08-03 11:30:48 AM,-,1627982926473,
2021-08-03 11:30:48 AM,-,1627982926476,
2021-08-03 11:30:48 AM,-,1627982926480,
2021-08-03 11:30:48 AM,-,1627982926483,
2021-08-03 11:30:48 AM,-,1627982926486,
2021-08-03 11:30:48 AM,-,1627982926490,
2021-08-03 11:30:48 AM,-,1627982926493,
2021-08-03 11:30:48 AM,-,1627982926496,
2021-08-03 11:30:48 AM,-,1627982926500,
2021-08-03 11:30:48 AM,-,1627982926503,
2021-08-03 11:30:48 AM,-,1627982926506,
2021-08-03 11:30:48 AM,-,1627982926510,
2021-08-03 11:30:48 AM,-,1627982926513,
2021-08-03 11:30:48 AM,-,1627982926516,
2021-08-03 11:30:48 AM,-,1627982926520,
2021-08-03 11:30:48 AM,-,1627982926523,
2021-08-03 11:30:48 AM,-,1627982926526,
2021-08-03 11:30:48 AM,-,1627982926530,
2021-08-03 11:30:48 AM,-,1627982926533,
2021-08-03 11:30:48 AM,-,1627982926536,
2021-08-03 11:30:48 AM,-,1627982926540,
2021-08-03 11:30:48 AM,-,1627982926543,
2021-08-03 11:30:48 AM,-,1627982926546,
2021-08-03 11:30:48 AM,-,1627982926550,
2021-08-03 11:30:48 AM,-,1627982926553,
2021-08-03 11:30:48 AM,-,1627982926556,
2021-08-03 11:30:48 AM,-,1627982926560,
2021-08-03 11:30:48 AM,-,1627982926563,
2021-08-03 11:30:48 AM,-,1627982926566,
2021-08-03 11:30:48 AM,-,1627982926570,
2021-08-03 11:30:48 AM,-,1627982926573,
2021-08-03 11:30:48 AM,-,1627982926576,
2021-08-03 11:30:48 AM,-,1627982926580,
2021-08-03 11:30:48 AM,-,1627982926583,
2021-08-03 11:30:48 AM,-,1627982926586,
2021-08-03 11:30:48 AM,-,1627982926590,
2021-08-03 11:30:48 AM,-,1627982926593,
2021-08-03 11:30:48 AM,-,1627982926596,
2021-08-03 11:30:48 AM,-,1627982926600,
2021-08-03 11:30:48 AM,-,1627982926603,
2021-08-03 11:30:48 AM,-,1627982926606,
2021-08-03 11:30:48 AM,-,1627982926610,
2021-08-03 11:30:48 AM,-,1627982926613,
2021-08-03 11:30:48 AM,-,1627982926616,
2021-08-03 11:30:48 AM,-,1627982926620,
2021-08-03 11:30:48 AM,-,1627982926623,
2021-08-03 11:30:48 AM,-,1627982926626,
2021-08-03 11:30:48 AM,-,1627982926630,
2021-08-03 11:30:48 AM,-,1627982926633,
2021-08-03 11:30:48 AM,-,1627982926636,
2021-08-03 11:30:48 AM,-,1627982926640,
2021-08-03 11:30:48 AM,-,1627982926643,
2021-08-03 11:30:48 AM,-,1627982926646,
2021-08-03 11:30:48 AM,-,1627982926650,
2021-08-03 11:30:48 AM,-,1627982926653,
2021-08-03 11:30:48 AM,-,1627982926656,
2021-08-03 11:30:48 AM,-,1627982926660,
2021-08-03 11:30:48 AM,-,1627982926663,
2021-08-03 11:30:48 AM,-,1627982926666,
2021-08-03 11:30:48 AM,-,1627982926670,
2021-08-03 11:30:48 AM,-,1627982926673,
2021-08-03 11:30:48 AM,-,1627982926676,
2021-08-03 11:30:48 AM,-,1627982926680,
2021-08-03 11:30:48 AM,-,1627982926683,
2021-08-03 11:30:48 AM,-,1627982926686,
2021-08-03 11:30:48 AM,-,1627982926690,
2021-08-03 11:30:48 AM,-,1627982926693,
2021-08-03 11:30:48 AM,-,1627982926696,
2021-08-03 11:30:48 AM,-,1627982926700,
2021-08-03 11:30:48 AM,-,1627982926703,
2021-08-03 11:30:48 AM,-,1627982926706,
2021-08-03 11:30:48 AM,-,1627982926710,
2021-08-03 11:30:48 AM,-,1627982926713,
2021-08-03 11:30:48 AM,-,1627982926716,
2021-08-03 11:30:48 AM,-,1627982926720,
2021-08-03 11:30:48 AM,-,1627982926723,
2021-08-03 11:30:48 AM,-,1627982926726,
2021-08-03 11:30:48 AM,-,1627982926730,
2021-08-03 11:30:48 AM,-,1627982926733,
2021-08-03 11:30:48 AM,-,1627982926736,
2021-08-03 11:30:48 AM,-,1627982926740,
2021-08-03 11:30:48 AM,-,1627982926743,
2021-08-03 11:30:48 AM,-,1627982926746,
2021-08-03 11:30:48 AM,-,1627982926750,
2021-08-03 11:30:48 AM,-,1627982926753,
2021-08-03 11:30:48 AM,-,1627982926756,
2021-08-03 11:30:48 AM,-,1627982926760,
2021-08-03 11:30:48 AM,-,1627982926763,
2021-08-03 11:30:48 AM,-,1627982926766,
2021-08-03 11:30:48 AM,-,1627982926770,
2021-08-03 11:30:48 AM,-,1627982926773,
2021-08-03 11:30:48 AM,-,1627982926776,
2021-08-03 11:30:48 AM,-,1627982926780,
2021-08-03 11:30:48 AM,-,1627982926783,
2021-08-03 11:30:48 AM,-,1627982926786,
2021-08-03 11:30:48 AM,-,1627982926790,
2021-08-03 11:30:48 AM,-,1627982926793,
2021-08-03 11:30:48 AM,-,1627982926796,
2021-08-03 11:30:48 AM,-,1627982926800,
2021-08-03 11:30:48 AM,-,1627982926803,
2021-08-03 11:30:48 AM,-,1627982926806,
2021-08-03 11:30:48 AM,-,1627982926810,
2021-08-03 11:30:48 AM,-,1627982926813,
2021-08-03 11:30:48 AM,-,1627982926816,
2021-08-03 11:30:48 AM,-,1627982926820,
2021-08-03 11:30:48 AM,-,1627982926823,
2021-08-03 11:30:48 AM,-,1627982926826,
2021-08-03 11:30:48 AM,-,1627982926830,
2021-08-03 11:30:48 AM,-,1627982926833,
2021-08-03 11:30:48 AM,-,1627982926836,
2021-08-03 11:30:48 AM,-,1627982926840,
2021-08-03 11:30:48 AM,-,1627982926843,
2021-08-03 11:30:48 AM,-,1627982926846,
2021-08-03 11:30:48 AM,-,1627982926850,
2021-08-03 11:30:48 AM,-,1627982926853,
2021-08-03 11:30:48 AM,-,1627982926856,
2021-08-03 11:30:48 AM,-,1627982926860,
2021-08-03 11:30:48 AM,-,1627982926863,
2021-08-03 11:30:48 AM,-,1627982926866,
2021-08-03 11:30:48 AM,-,1627982926870,
2021-08-03 11:30:48 AM,-,1627982926873,
2021-08-03 11:30:48 AM,-,1627982926876,
2021-08-03 11:30:48 AM,-,1627982926880,
2021-08-03 11:30:48 AM,-,1627982926883,
2021-08-03 11:30:48 AM,-,1627982926886,
2021-08-03 11:30:48 AM,-,1627982926890,
2021-08-03 11:30:48 AM,-,1627982926893,
2021-08-03 11:30:48 AM,-,1627982926896,
2021-08-03 11:30:48 AM,-,1627982926900,
2021-08-03 11:30:48 AM,-,1627982926903,
2021-08-03 11:30:48 AM,-,1627982926906,
2021-08-03 11:30:48 AM,-,1627982926910,
2021-08-03 11:30:48 AM,-,1627982926913,
2021-08-03 11:30:48 AM,-,1627982926916,
2021-08-03 11:30:48 AM,-,1627982926920,
2021-08-03 11:30:48 AM,-,1627982926923,
2021-08-03 11:30:48 AM,-,1627982926926,
2021-08-03 11:30:48 AM,-,1627982926930,
2021-08-03 11:30:48 AM,-,1627982926933,
2021-08-03 11:30:48 AM,-,1627982926936,
2021-08-03 11:30:48 AM,-,1627982926940,
2021-08-03 11:30:48 AM,-,1627982926943,
2021-08-03 11:30:48 AM,-,1627982926946,
2021-08-03 11:30:48 AM,-,1627982926950,
2021-08-03 11:30:48 AM,-,1627982926953,
2021-08-03 11:30:48 AM,-,1627982926956,
2021-08-03 11:30:48 AM,-,1627982926960,
2021-08-03 11:30:48 AM,-,1627982926963,
2021-08-03 11:30:48 AM,-,1627982926966,
2021-08-03 11:30:48 AM,-,1627982926970,
2021-08-03 11:30:48 AM,-,1627982926973,
2021-08-03 11:30:48 AM,-,1627982926976,
2021-08-03 11:30:48 AM,-,1627982926980,
2021-08-03 11:30:48 AM,-,1627982926983,
2021-08-03 11:30:48 AM,-,1627982926986,
2021-08-03 11:30:48 AM,-,1627982926990,
2021-08-03 11:30:48 AM,-,1627982926993,
2021-08-03 11:30:48 AM,-,1627982926996,
2021-08-03 11:30:49 AM,-,1627982927000,
2021-08-03 11:30:49 AM,-,1627982927003,
2021-08-03 11:30:49 AM,-,1627982927006,
2021-08-03 11:30:49 AM,-,1627982927010,
2021-08-03 11:30:49 AM,-,1627982927013,
2021-08-03 11:30:49 AM,-,1627982927016,
2021-08-03 11:30:49 AM,-,1627982927020,
2021-08-03 11:30:49 AM,-,1627982927023,
2021-08-03 11:30:49 AM,-,1627982927026,
2021-08-03 11:30:49 AM,-,1627982927030,
2021-08-03 11:30:49 AM,-,1627982927033,
2021-08-03 11:30:49 AM,-,1627982927036,
2021-08-03 11:30:49 AM,-,1627982927040,
2021-08-03 11:30:49 AM,-,1627982927043,
2021-08-03 11:30:49 AM,-,1627982927046,
2021-08-03 11:30:49 AM,-,1627982927050,
2021-08-03 11:30:49 AM,-,1627982927053,
2021-08-03 11:30:49 AM,-,1627982927056,
2021-08-03 11:30:49 AM,-,1627982927060,
2021-08-03 11:30:49 AM,-,1627982927063,
2021-08-03 11:30:49 AM,-,1627982927066,
2021-08-03 11:30:49 AM,-,1627982927070,
2021-08-03 11:30:49 AM,-,1627982927073,
2021-08-03 11:30:49 AM,-,1627982927076,
2021-08-03 11:30:49 AM,-,1627982927080,
2021-08-03 11:30:49 AM,-,1627982927083,
2021-08-03 11:30:49 AM,-,1627982927086,
2021-08-03 11:30:49 AM,-,1627982927090,
2021-08-03 11:30:49 AM,-,1627982927093,
2021-08-03 11:30:49 AM,-,1627982927096,
2021-08-03 11:30:49 AM,-,1627982927100,
2021-08-03 11:30:49 AM,-,1627982927103,
2021-08-03 11:30:49 AM,-,1627982927106,
2021-08-03 11:30:49 AM,-,1627982927110,
2021-08-03 11:30:49 AM,-,1627982927113,
2021-08-03 11:30:49 AM,-,1627982927116,
2021-08-03 11:30:49 AM,-,1627982927120,
2021-08-03 11:30:49 AM,-,1627982927123,
2021-08-03 11:30:49 AM,-,1627982927126,
2021-08-03 11:30:49 AM,-,1627982927130,
2021-08-03 11:30:49 AM,-,1627982927133,
2021-08-03 11:30:49 AM,-,1627982927136,
2021-08-03 11:30:49 AM,-,1627982927140,
2021-08-03 11:30:49 AM,-,1627982927143,
2021-08-03 11:30:49 AM,-,1627982927146,
2021-08-03 11:30:49 AM,-,1627982927150,
2021-08-03 11:30:49 AM,-,1627982927153,
2021-08-03 11:30:49 AM,-,1627982927156,
2021-08-03 11:30:49 AM,-,1627982927160,
2021-08-03 11:30:49 AM,-,1627982927163,
2021-08-03 11:30:49 AM,-,1627982927166,
2021-08-03 11:30:49 AM,-,1627982927170,
2021-08-03 11:30:49 AM,-,1627982927173,
2021-08-03 11:30:49 AM,-,1627982927176,
2021-08-03 11:30:49 AM,-,1627982927180,
2021-08-03 11:30:49 AM,-,1627982927183,
2021-08-03 11:30:49 AM,-,1627982927186,
2021-08-03 11:30:49 AM,-,1627982927190,
2021-08-03 11:30:49 AM,-,1627982927193,
2021-08-03 11:30:49 AM,-,1627982927196,
2021-08-03 11:30:49 AM,-,1627982927200,
2021-08-03 11:30:49 AM,-,1627982927203,
2021-08-03 11:30:49 AM,-,1627982927206,
2021-08-03 11:30:49 AM,-,1627982927210,
2021-08-03 11:30:49 AM,-,1627982927213,
2021-08-03 11:30:49 AM,-,1627982927216,
2021-08-03 11:30:49 AM,-,1627982927220,
2021-08-03 11:30:49 AM,-,1627982927223,
2021-08-03 11:30:49 AM,-,1627982927226,
2021-08-03 11:30:49 AM,-,1627982927230,
2021-08-03 11:30:49 AM,-,1627982927233,
2021-08-03 11:30:49 AM,-,1627982927236,
2021-08-03 11:30:49 AM,-,1627982927240,
2021-08-03 11:30:49 AM,-,1627982927243,
2021-08-03 11:30:49 AM,-,1627982927246,
2021-08-03 11:30:49 AM,-,1627982927250,
2021-08-03 11:30:49 AM,-,1627982927253,
2021-08-03 11:30:49 AM,-,1627982927256,
2021-08-03 11:30:49 AM,-,1627982927260,
2021-08-03 11:30:49 AM,-,1627982927263,
2021-08-03 11:30:49 AM,-,1627982927266,
2021-08-03 11:30:49 AM,-,1627982927270,
2021-08-03 11:30:49 AM,-,1627982927273,
2021-08-03 11:30:49 AM,-,1627982927276,
2021-08-03 11:30:49 AM,-,1627982927280,
2021-08-03 11:30:49 AM,-,1627982927283,
2021-08-03 11:30:49 AM,-,1627982927286,
2021-08-03 11:30:49 AM,-,1627982927290,
2021-08-03 11:30:49 AM,-,1627982927293,
2021-08-03 11:30:49 AM,-,1627982927296,
2021-08-03 11:30:49 AM,-,1627982927300,
2021-08-03 11:30:49 AM,-,1627982927303,
2021-08-03 11:30:49 AM,-,1627982927306,
2021-08-03 11:30:49 AM,-,1627982927310,
2021-08-03 11:30:49 AM,-,1627982927313,
2021-08-03 11:30:49 AM,-,1627982927316,
2021-08-03 11:30:49 AM,-,1627982927320,
2021-08-03 11:30:49 AM,-,1627982927323,
2021-08-03 11:30:49 AM,-,1627982927326,
2021-08-03 11:30:49 AM,-,1627982927330,
2021-08-03 11:30:49 AM,-,1627982927333,
2021-08-03 11:30:49 AM,-,1627982927336,
2021-08-03 11:30:49 AM,-,1627982927340,
2021-08-03 11:30:49 AM,-,1627982927343,
2021-08-03 11:30:49 AM,-,1627982927346,
2021-08-03 11:30:49 AM,-,1627982927350,
2021-08-03 11:30:49 AM,-,1627982927353,
2021-08-03 11:30:49 AM,-,1627982927356,
2021-08-03 11:30:49 AM,-,1627982927360,
2021-08-03 11:30:49 AM,-,1627982927363,
2021-08-03 11:30:49 AM,-,1627982927366,
2021-08-03 11:30:49 AM,-,1627982927370,
2021-08-03 11:30:49 AM,-,1627982927373,
2021-08-03 11:30:49 AM,-,1627982927376,
2021-08-03 11:30:49 AM,-,1627982927380,
2021-08-03 11:30:49 AM,-,1627982927383,
2021-08-03 11:30:49 AM,-,1627982927386,
2021-08-03 11:30:49 AM,-,1627982927390,
2021-08-03 11:30:49 AM,-,1627982927393,
2021-08-03 11:30:49 AM,-,1627982927396,
2021-08-03 11:30:49 AM,-,1627982927400,
2021-08-03 11:30:49 AM,-,1627982927403,
2021-08-03 11:30:49 AM,-,1627982927406,
2021-08-03 11:30:49 AM,-,1627982927410,
2021-08-03 11:30:49 AM,-,1627982927413,
2021-08-03 11:30:49 AM,-,1627982927416,
2021-08-03 11:30:49 AM,-,1627982927420,
2021-08-03 11:30:49 AM,-,1627982927423,
2021-08-03 11:30:49 AM,-,1627982927426,
2021-08-03 11:30:49 AM,-,1627982927430,
2021-08-03 11:30:49 AM,-,1627982927433,
2021-08-03 11:30:49 AM,-,1627982927436,
2021-08-03 11:30:49 AM,-,1627982927440,
2021-08-03 11:30:49 AM,-,1627982927443,
2021-08-03 11:30:49 AM,-,1627982927446,
2021-08-03 11:30:49 AM,-,1627982927450,
2021-08-03 11:30:49 AM,-,1627982927453,
2021-08-03 11:30:49 AM,-,1627982927456,
2021-08-03 11:30:49 AM,-,1627982927460,
2021-08-03 11:30:49 AM,-,1627982927463,
2021-08-03 11:30:49 AM,-,1627982927466,
2021-08-03 11:30:49 AM,-,1627982927470,
2021-08-03 11:30:49 AM,-,1627982927473,
2021-08-03 11:30:49 AM,-,1627982927476,
2021-08-03 11:30:49 AM,-,1627982927480,
2021-08-03 11:30:49 AM,-,1627982927483,
2021-08-03 11:30:49 AM,-,1627982927486,
2021-08-03 11:30:49 AM,-,1627982927490,
2021-08-03 11:30:49 AM,-,1627982927493,
2021-08-03 11:30:49 AM,-,1627982927496,
2021-08-03 11:30:49 AM,-,1627982927500,
2021-08-03 11:30:49 AM,-,1627982927503,
2021-08-03 11:30:49 AM,-,1627982927506,
2021-08-03 11:30:49 AM,-,1627982927510,
2021-08-03 11:30:49 AM,-,1627982927513,
2021-08-03 11:30:49 AM,-,1627982927516,
2021-08-03 11:30:49 AM,-,1627982927520,
2021-08-03 11:30:49 AM,-,1627982927523,
2021-08-03 11:30:49 AM,-,1627982927526,
2021-08-03 11:30:49 AM,-,1627982927530,
2021-08-03 11:30:49 AM,-,1627982927533,
2021-08-03 11:30:49 AM,-,1627982927536,
2021-08-03 11:30:49 AM,-,1627982927540,
2021-08-03 11:30:49 AM,-,1627982927543,
2021-08-03 11:30:49 AM,-,1627982927546,
2021-08-03 11:30:49 AM,-,1627982927550,
2021-08-03 11:30:49 AM,-,1627982927553,
2021-08-03 11:30:49 AM,-,1627982927556,
2021-08-03 11:30:49 AM,-,1627982927560,
2021-08-03 11:30:49 AM,-,1627982927563,
2021-08-03 11:30:49 AM,-,1627982927566,
2021-08-03 11:30:49 AM,-,1627982927570,
2021-08-03 11:30:49 AM,-,1627982927573,
2021-08-03 11:30:49 AM,-,1627982927576,
2021-08-03 11:30:49 AM,-,1627982927580,
2021-08-03 11:30:49 AM,-,1627982927583,
2021-08-03 11:30:49 AM,-,1627982927586,
2021-08-03 11:30:49 AM,-,1627982927590,
2021-08-03 11:30:49 AM,-,1627982927593,
2021-08-03 11:30:49 AM,-,1627982927596,
2021-08-03 11:30:49 AM,-,1627982927600,
2021-08-03 11:30:49 AM,-,1627982927603,
2021-08-03 11:30:49 AM,-,1627982927606,
2021-08-03 11:30:49 AM,-,1627982927610,
2021-08-03 11:30:49 AM,-,1627982927613,
2021-08-03 11:30:49 AM,-,1627982927616,
2021-08-03 11:30:49 AM,-,1627982927620,
2021-08-03 11:30:49 AM,-,1627982927623,
2021-08-03 11:30:49 AM,-,1627982927626,
2021-08-03 11:30:49 AM,-,1627982927630,
2021-08-03 11:30:49 AM,-,1627982927633,
2021-08-03 11:30:49 AM,-,1627982927636,
2021-08-03 11:30:49 AM,-,1627982927640,
2021-08-03 11:30:49 AM,-,1627982927643,
2021-08-03 11:30:49 AM,-,1627982927646,
2021-08-03 11:30:49 AM,-,1627982927650,
2021-08-03 11:30:49 AM,-,1627982927653,
2021-08-03 11:30:49 AM,-,1627982927656,
2021-08-03 11:30:49 AM,-,1627982927660,
2021-08-03 11:30:49 AM,-,1627982927663,
2021-08-03 11:30:49 AM,-,1627982927666,
2021-08-03 11:30:49 AM,-,1627982927670,
2021-08-03 11:30:49 AM,-,1627982927673,
2021-08-03 11:30:49 AM,-,1627982927676,
2021-08-03 11:30:49 AM,-,1627982927680,
2021-08-03 11:30:49 AM,-,1627982927683,
2021-08-03 11:30:49 AM,-,1627982927686,
2021-08-03 11:30:49 AM,-,1627982927690,
2021-08-03 11:30:49 AM,-,1627982927693,
2021-08-03 11:30:49 AM,-,1627982927696,
2021-08-03 11:30:49 AM,-,1627982927700,
2021-08-03 11:30:49 AM,-,1627982927703,
2021-08-03 11:30:49 AM,-,1627982927706,
2021-08-03 11:30:49 AM,-,1627982927710,
2021-08-03 11:30:49 AM,-,1627982927713,
2021-08-03 11:30:49 AM,-,1627982927716,
2021-08-03 11:30:49 AM,-,1627982927720,
2021-08-03 11:30:49 AM,-,1627982927723,
2021-08-03 11:30:49 AM,-,1627982927726,
2021-08-03 11:30:49 AM,-,1627982927730,
2021-08-03 11:30:49 AM,-,1627982927733,
2021-08-03 11:30:49 AM,-,1627982927736,
2021-08-03 11:30:49 AM,-,1627982927740,
2021-08-03 11:30:49 AM,-,1627982927743,
2021-08-03 11:30:49 AM,-,1627982927746,
2021-08-03 11:30:49 AM,-,1627982927750,
2021-08-03 11:30:49 AM,-,1627982927753,
2021-08-03 11:30:49 AM,-,1627982927756,
2021-08-03 11:30:49 AM,-,1627982927760,
2021-08-03 11:30:49 AM,-,1627982927763,
2021-08-03 11:30:49 AM,-,1627982927766,
2021-08-03 11:30:49 AM,-,1627982927770,
2021-08-03 11:30:49 AM,-,1627982927773,
2021-08-03 11:30:49 AM,-,1627982927776,
2021-08-03 11:30:49 AM,-,1627982927780,
2021-08-03 11:30:49 AM,-,1627982927783,
2021-08-03 11:30:49 AM,-,1627982927786,
2021-08-03 11:30:49 AM,-,1627982927790,
2021-08-03 11:30:49 AM,-,1627982927793,
2021-08-03 11:30:49 AM,-,1627982927796,
2021-08-03 11:30:49 AM,-,1627982927800,
2021-08-03 11:30:49 AM,-,1627982927803,
2021-08-03 11:30:49 AM,-,1627982927806,
2021-08-03 11:30:49 AM,-,1627982927810,
2021-08-03 11:30:49 AM,-,1627982927813,
2021-08-03 11:30:49 AM,-,1627982927816,
2021-08-03 11:30:49 AM,-,1627982927820,
2021-08-03 11:30:49 AM,-,1627982927823,
2021-08-03 11:30:49 AM,-,1627982927826,
2021-08-03 11:30:49 AM,-,1627982927830,
2021-08-03 11:30:49 AM,-,1627982927833,
2021-08-03 11:30:49 AM,-,1627982927836,
2021-08-03 11:30:49 AM,-,1627982927840,
2021-08-03 11:30:49 AM,-,1627982927843,
2021-08-03 11:30:49 AM,-,1627982927846,
2021-08-03 11:30:49 AM,-,1627982927850,
2021-08-03 11:30:49 AM,-,1627982927853,
2021-08-03 11:30:49 AM,-,1627982927856,
2021-08-03 11:30:49 AM,-,1627982927860,
2021-08-03 11:30:49 AM,-,1627982927863,
2021-08-03 11:30:49 AM,-,1627982927866,
2021-08-03 11:30:49 AM,-,1627982927870,
2021-08-03 11:30:49 AM,-,1627982927873,
2021-08-03 11:30:49 AM,-,1627982927876,
2021-08-03 11:30:49 AM,-,1627982927880,
2021-08-03 11:30:49 AM,-,1627982927883,
2021-08-03 11:30:49 AM,-,1627982927886,
2021-08-03 11:30:49 AM,-,1627982927890,
2021-08-03 11:30:49 AM,-,1627982927893,
2021-08-03 11:30:49 AM,-,1627982927896,
2021-08-03 11:30:49 AM,-,1627982927900,
2021-08-03 11:30:49 AM,-,1627982927903,
2021-08-03 11:30:49 AM,-,1627982927906,
2021-08-03 11:30:49 AM,-,1627982927910,
2021-08-03 11:30:49 AM,-,1627982927913,
2021-08-03 11:30:49 AM,-,1627982927916,
2021-08-03 11:30:49 AM,-,1627982927920,
2021-08-03 11:30:49 AM,-,1627982927923,
2021-08-03 11:30:49 AM,-,1627982927926,
2021-08-03 11:30:49 AM,-,1627982927930,
2021-08-03 11:30:49 AM,-,1627982927933,
2021-08-03 11:30:49 AM,-,1627982927936,
2021-08-03 11:30:49 AM,-,1627982927940,
2021-08-03 11:30:49 AM,-,1627982927943,
2021-08-03 11:30:49 AM,-,1627982927946,
2021-08-03 11:30:49 AM,-,1627982927950,
2021-08-03 11:30:49 AM,-,1627982927953,
2021-08-03 11:30:49 AM,-,1627982927956,
2021-08-03 11:30:49 AM,-,1627982927960,
2021-08-03 11:30:49 AM,-,1627982927963,
2021-08-03 11:30:49 AM,-,1627982927966,
2021-08-03 11:30:49 AM,-,1627982927970,
2021-08-03 11:30:49 AM,-,1627982927973,
2021-08-03 11:30:49 AM,-,1627982927976,
2021-08-03 11:30:49 AM,-,1627982927980,
2021-08-03 11:30:49 AM,-,1627982927983,
2021-08-03 11:30:49 AM,-,1627982927986,
2021-08-03 11:30:49 AM,-,1627982927990,
2021-08-03 11:30:49 AM,-,1627982927993,
2021-08-03 11:30:49 AM,-,1627982927996,
