2021-08-04 11:02:33 AM,-,1628067631000,
2021-08-04 11:02:33 AM,-,1628067631003,
2021-08-04 11:02:33 AM,-,1628067631006,
2021-08-04 11:02:33 AM,-,1628067631010,
2021-08-04 11:02:33 AM,-,1628067631013,
2021-08-04 11:02:33 AM,-,1628067631016,
2021-08-04 11:02:33 AM,-,1628067631020,
2021-08-04 11:02:33 AM,-,1628067631023,
2021-08-04 11:02:33 AM,-,1628067631026,
2021-08-04 11:02:33 AM,-,1628067631030,
2021-08-04 11:02:33 AM,-,1628067631033,
2021-08-04 11:02:33 AM,-,1628067631036,
2021-08-04 11:02:33 AM,-,1628067631040,
2021-08-04 11:02:33 AM,-,1628067631043,
2021-08-04 11:02:33 AM,-,1628067631046,
2021-08-04 11:02:33 AM,-,1628067631050,
2021-08-04 11:02:33 AM,-,1628067631053,
2021-08-04 11:02:33 AM,-,1628067631056,
2021-08-04 11:02:33 AM,-,1628067631060,
2021-08-04 11:02:33 AM,-,1628067631063,
2021-08-04 11:02:33 AM,-,1628067631066,
2021-08-04 11:02:33 AM,-,1628067631070,
2021-08-04 11:02:33 AM,-,1628067631073,
2021-08-04 11:02:33 AM,-,1628067631076,
2021-08-04 11:02:33 AM,-,1628067631080,
2021-08-04 11:02:33 AM,-,1628067631083,
2021-08-04 11:02:33 AM,-,1628067631086,
2021-08-04 11:02:33 AM,-,1628067631090,
2021-08-04 11:02:33 AM,-,1628067631093,
2021-08-04 11:02:33 AM,-,1628067631096,
2021-08-04 11:02:33 AM,-,1628067631100,
2021-08-04 11:02:33 AM,-,1628067631103,
2021-08-04 11:02:33 AM,-,1628067631106,
2021-08-04 11:02:33 AM,-,1628067631110,
2021-08-04 11:02:33 AM,-,1628067631113,
2021-08-04 11:02:33 AM,-,1628067631116,
2021-08-04 11:02:33 AM,-,1628067631120,
2021-08-04 11:02:33 AM,-,1628067631123,
2021-08-04 11:02:33 AM,-,1628067631126,
2021-08-04 11:02:33 AM,-,1628067631130,
2021-08-04 11:02:33 AM,-,1628067631133,
2021-08-04 11:02:33 AM,-,1628067631136,
2021-08-04 11:02:33 AM,-,1628067631140,
2021-08-04 11:02:33 AM,-,1628067631143,
2021-08-04 11:02:33 AM,-,1628067631146,
2021-08-04 11:02:33 AM,-,1628067631150,
2021-08-04 11:02:33 AM,-,1628067631153,
2021-08-04 11:02:33 AM,-,1628067631156,
2021-08-04 11:02:33 AM,-,1628067631160,
2021-08-04 11:02:33 AM,-,1628067631163,
2021-08-04 11:02:33 AM,-,1628067631166,
2021-08-04 11:02:33 AM,-,1628067631170,
2021-08-04 11:02:33 AM,-,1628067631173,
2021-08-04 11:02:33 AM,-,1628067631176,
2021-08-04 11:02:33 AM,-,1628067631180,
2021-08-04 11:02:33 AM,-,1628067631183,
2021-08-04 11:02:33 AM,-,1628067631186,
2021-08-04 11:02:33 AM,-,1628067631190,
2021-08-04 11:02:33 AM,-,1628067631193,
2021-08-04 11:02:33 AM,-,1628067631196,
2021-08-04 11:02:33 AM,-,1628067631200,
2021-08-04 11:02:33 AM,-,1628067631203,
2021-08-04 11:02:33 AM,-,1628067631206,
2021-08-04 11:02:33 AM,-,1628067631210,
2021-08-04 11:02:33 AM,-,1628067631213,
2021-08-04 11:02:33 AM,-,1628067631216,
2021-08-04 11:02:33 AM,-,1628067631220,
2021-08-04 11:02:33 AM,-,1628067631223,
2021-08-04 11:02:33 AM,-,1628067631226,
2021-08-04 11:02:33 AM,-,1628067631230,
2021-08-04 11:02:33 AM,-,1628067631233,
2021-08-04 11:02:33 AM,-,1628067631236,
2021-08-04 11:02:33 AM,-,1628067631240,
2021-08-04 11:02:33 AM,-,1628067631243,
2021-08-04 11:02:33 AM,-,1628067631246,
2021-08-04 11:02:33 AM,-,1628067631250,
2021-08-04 11:02:33 AM,-,1628067631253,
2021-08-04 11:02:33 AM,-,1628067631256,
2021-08-04 11:02:33 AM,-,1628067631260,
2021-08-04 11:02:33 AM,-,1628067631263,
2021-08-04 11:02:33 AM,-,1628067631266,
2021-08-04 11:02:33 AM,-,1628067631270,
2021-08-04 11:02:33 AM,-,1628067631273,
2021-08-04 11:02:33 AM,-,1628067631276,
2021-08-04 11:02:33 AM,-,1628067631280,
2021-08-04 11:02:33 AM,-,1628067631283,
2021-08-04 11:02:33 AM,-,1628067631286,
2021-08-04 11:02:33 AM,-,1628067631290,
2021-08-04 11:02:33 AM,-,1628067631293,
2021-08-04 11:02:33 AM,-,1628067631296,
2021-08-04 11:02:33 AM,-,1628067631300,
2021-08-04 11:02:33 AM,-,1628067631303,
2021-08-04 11:02:33 AM,-,1628067631306,
2021-08-04 11:02:33 AM,-,1628067631310,
2021-08-04 11:02:33 AM,-,1628067631313,
2021-08-04 11:02:33 AM,-,1628067631316,
2021-08-04 11:02:33 AM,-,1628067631320,
2021-08-04 11:02:33 AM,-,1628067631323,
2021-08-04 11:02:33 AM,-,1628067631326,
2021-08-04 11:02:33 AM,-,1628067631330,
2021-08-04 11:02:33 AM,-,1628067631333,
2021-08-04 11:02:33 AM,-,1628067631336,
2021-08-04 11:02:33 AM,-,1628067631340,
2021-08-04 11:02:33 AM,-,1628067631343,
2021-08-04 11:02:33 AM,-,1628067631346,
2021-08-04 11:02:33 AM,-,1628067631350,
2021-08-04 11:02:33 AM,-,1628067631353,
2021-08-04 11:02:33 AM,-,1628067631356,
2021-08-04 11:02:33 AM,-,1628067631360,
2021-08-04 11:02:33 AM,-,1628067631363,
2021-08-04 11:02:33 AM,-,1628067631366,
2021-08-04 11:02:33 AM,-,1628067631370,
2021-08-04 11:02:33 AM,-,1628067631373,
2021-08-04 11:02:33 AM,-,1628067631376,
2021-08-04 11:02:33 AM,-,1628067631380,
2021-08-04 11:02:33 AM,-,1628067631383,
2021-08-04 11:02:33 AM,-,1628067631386,
2021-08-04 11:02:33 AM,-,1628067631390,
2021-08-04 11:02:33 AM,-,1628067631393,
2021-08-04 11:02:33 AM,-,1628067631396,
2021-08-04 11:02:33 AM,-,1628067631400,
2021-08-04 11:02:33 AM,-,1628067631403,
2021-08-04 11:02:33 AM,-,1628067631406,
2021-08-04 11:02:33 AM,-,1628067631410,
2021-08-04 11:02:33 AM,-,1628067631413,
2021-08-04 11:02:33 AM,-,1628067631416,
2021-08-04 11:02:33 AM,-,1628067631420,
2021-08-04 11:02:33 AM,-,1628067631423,
2021-08-04 11:02:33 AM,-,1628067631426,
2021-08-04 11:02:33 AM,-,1628067631430,
2021-08-04 11:02:33 AM,-,1628067631433,
2021-08-04 11:02:33 AM,-,1628067631436,
2021-08-04 11:02:33 AM,-,1628067631440,
2021-08-04 11:02:33 AM,-,1628067631443,
2021-08-04 11:02:33 AM,-,1628067631446,
2021-08-04 11:02:33 AM,-,1628067631450,
2021-08-04 11:02:33 AM,-,1628067631453,
2021-08-04 11:02:33 AM,-,1628067631456,
2021-08-04 11:02:33 AM,-,1628067631460,
2021-08-04 11:02:33 AM,-,1628067631463,
2021-08-04 11:02:33 AM,-,1628067631466,
2021-08-04 11:02:33 AM,-,1628067631470,
2021-08-04 11:02:33 AM,-,1628067631473,
2021-08-04 11:02:33 AM,-,1628067631476,
2021-08-04 11:02:33 AM,-,1628067631480,
2021-08-04 11:02:33 AM,-,1628067631483,
2021-08-04 11:02:33 AM,-,1628067631486,
2021-08-04 11:02:33 AM,-,1628067631490,
2021-08-04 11:02:33 AM,-,1628067631493,
2021-08-04 11:02:33 AM,-,1628067631496,
2021-08-04 11:02:33 AM,-,1628067631500,
2021-08-04 11:02:33 AM,-,1628067631503,
2021-08-04 11:02:33 AM,-,1628067631506,
2021-08-04 11:02:33 AM,-,1628067631510,
2021-08-04 11:02:33 AM,-,1628067631513,
2021-08-04 11:02:33 AM,-,1628067631516,
2021-08-04 11:02:33 AM,-,1628067631520,
2021-08-04 11:02:33 AM,-,1628067631523,
2021-08-04 11:02:33 AM,-,1628067631526,
2021-08-04 11:02:33 AM,-,1628067631530,
2021-08-04 11:02:33 AM,-,1628067631533,
2021-08-04 11:02:33 AM,-,1628067631536,
2021-08-04 11:02:33 AM,-,1628067631540,
2021-08-04 11:02:33 AM,-,1628067631543,
2021-08-04 11:02:33 AM,-,1628067631546,
2021-08-04 11:02:33 AM,-,1628067631550,
2021-08-04 11:02:33 AM,-,1628067631553,
2021-08-04 11:02:33 AM,-,1628067631556,
2021-08-04 11:02:33 AM,-,1628067631560,
2021-08-04 11:02:33 AM,-,1628067631563,
2021-08-04 11:02:33 AM,-,1628067631566,
2021-08-04 11:02:33 AM,-,1628067631570,
2021-08-04 11:02:33 AM,-,1628067631573,
2021-08-04 11:02:33 AM,-,1628067631576,
2021-08-04 11:02:33 AM,-,1628067631580,
2021-08-04 11:02:33 AM,-,1628067631583,
2021-08-04 11:02:33 AM,-,1628067631586,
2021-08-04 11:02:33 AM,-,1628067631590,
2021-08-04 11:02:33 AM,-,1628067631593,
2021-08-04 11:02:33 AM,-,1628067631596,
2021-08-04 11:02:33 AM,-,1628067631600,
2021-08-04 11:02:33 AM,-,1628067631603,
2021-08-04 11:02:33 AM,-,1628067631606,
2021-08-04 11:02:33 AM,-,1628067631610,
2021-08-04 11:02:33 AM,-,1628067631613,
2021-08-04 11:02:33 AM,-,1628067631616,
2021-08-04 11:02:33 AM,-,1628067631620,
2021-08-04 11:02:33 AM,-,1628067631623,
2021-08-04 11:02:33 AM,-,1628067631626,
2021-08-04 11:02:33 AM,-,1628067631630,
2021-08-04 11:02:33 AM,-,1628067631633,
2021-08-04 11:02:33 AM,-,1628067631636,
2021-08-04 11:02:33 AM,-,1628067631640,
2021-08-04 11:02:33 AM,-,1628067631643,
2021-08-04 11:02:33 AM,-,1628067631646,
2021-08-04 11:02:33 AM,-,1628067631650,
2021-08-04 11:02:33 AM,-,1628067631653,
2021-08-04 11:02:33 AM,-,1628067631656,
2021-08-04 11:02:33 AM,-,1628067631660,
2021-08-04 11:02:33 AM,-,1628067631663,
2021-08-04 11:02:33 AM,-,1628067631666,
2021-08-04 11:02:33 AM,-,1628067631670,
2021-08-04 11:02:33 AM,-,1628067631673,
2021-08-04 11:02:33 AM,-,1628067631676,
2021-08-04 11:02:33 AM,-,1628067631680,
2021-08-04 11:02:33 AM,-,1628067631683,
2021-08-04 11:02:33 AM,-,1628067631686,
2021-08-04 11:02:33 AM,-,1628067631690,
2021-08-04 11:02:33 AM,-,1628067631693,
2021-08-04 11:02:33 AM,-,1628067631696,
2021-08-04 11:02:33 AM,-,1628067631700,
2021-08-04 11:02:33 AM,-,1628067631703,
2021-08-04 11:02:33 AM,-,1628067631706,
2021-08-04 11:02:33 AM,-,1628067631710,
2021-08-04 11:02:33 AM,-,1628067631713,
2021-08-04 11:02:33 AM,-,1628067631716,
2021-08-04 11:02:33 AM,-,1628067631720,
2021-08-04 11:02:33 AM,-,1628067631723,
2021-08-04 11:02:33 AM,-,1628067631726,
2021-08-04 11:02:33 AM,-,1628067631730,
2021-08-04 11:02:33 AM,-,1628067631733,
2021-08-04 11:02:33 AM,-,1628067631736,
2021-08-04 11:02:33 AM,-,1628067631740,
2021-08-04 11:02:33 AM,-,1628067631743,
2021-08-04 11:02:33 AM,-,1628067631746,
2021-08-04 11:02:33 AM,-,1628067631750,
2021-08-04 11:02:33 AM,-,1628067631753,
2021-08-04 11:02:33 AM,-,1628067631756,
2021-08-04 11:02:33 AM,-,1628067631760,
2021-08-04 11:02:33 AM,-,1628067631763,
2021-08-04 11:02:33 AM,-,1628067631766,
2021-08-04 11:02:33 AM,-,1628067631770,
2021-08-04 11:02:33 AM,-,1628067631773,
2021-08-04 11:02:33 AM,-,1628067631776,
2021-08-04 11:02:33 AM,-,1628067631780,
2021-08-04 11:02:33 AM,-,1628067631783,
2021-08-04 11:02:33 AM,-,1628067631786,
2021-08-04 11:02:33 AM,-,1628067631790,
2021-08-04 11:02:33 AM,-,1628067631793,
2021-08-04 11:02:33 AM,-,1628067631796,
2021-08-04 11:02:33 AM,-,1628067631800,
2021-08-04 11:02:33 AM,-,1628067631803,
2021-08-04 11:02:33 AM,-,1628067631806,
2021-08-04 11:02:33 AM,-,1628067631810,
2021-08-04 11:02:33 AM,-,1628067631813,
2021-08-04 11:02:33 AM,-,1628067631816,
2021-08-04 11:02:33 AM,-,1628067631820,
2021-08-04 11:02:33 AM,-,1628067631823,
2021-08-04 11:02:33 AM,-,1628067631826,
2021-08-04 11:02:33 AM,-,1628067631830,
2021-08-04 11:02:33 AM,-,1628067631833,
2021-08-04 11:02:33 AM,-,1628067631836,
2021-08-04 11:02:33 AM,-,1628067631840,
2021-08-04 11:02:33 AM,-,1628067631843,
2021-08-04 11:02:33 AM,-,1628067631846,
2021-08-04 11:02:33 AM,-,1628067631850,
2021-08-04 11:02:33 AM,-,1628067631853,
2021-08-04 11:02:33 AM,-,1628067631856,
2021-08-04 11:02:33 AM,-,1628067631860,
2021-08-04 11:02:33 AM,-,1628067631863,
2021-08-04 11:02:33 AM,-,1628067631866,
2021-08-04 11:02:33 AM,-,1628067631870,
2021-08-04 11:02:33 AM,-,1628067631873,
2021-08-04 11:02:33 AM,-,1628067631876,
2021-08-04 11:02:33 AM,-,1628067631880,
2021-08-04 11:02:33 AM,-,1628067631883,
2021-08-04 11:02:33 AM,-,1628067631886,
2021-08-04 11:02:33 AM,-,1628067631890,
2021-08-04 11:02:33 AM,-,1628067631893,
2021-08-04 11:02:33 AM,-,1628067631896,
2021-08-04 11:02:33 AM,-,1628067631900,
2021-08-04 11:02:33 AM,-,1628067631903,
2021-08-04 11:02:33 AM,-,1628067631906,
2021-08-04 11:02:33 AM,-,1628067631910,
2021-08-04 11:02:33 AM,-,1628067631913,
2021-08-04 11:02:33 AM,-,1628067631916,
2021-08-04 11:02:33 AM,-,1628067631920,
2021-08-04 11:02:33 AM,-,1628067631923,
2021-08-04 11:02:33 AM,-,1628067631926,
2021-08-04 11:02:33 AM,-,1628067631930,
2021-08-04 11:02:33 AM,-,1628067631933,
2021-08-04 11:02:33 AM,-,1628067631936,
2021-08-04 11:02:33 AM,-,1628067631940,
2021-08-04 11:02:33 AM,-,1628067631943,
2021-08-04 11:02:33 AM,-,1628067631946,
2021-08-04 11:02:33 AM,-,1628067631950,
2021-08-04 11:02:33 AM,-,1628067631953,
2021-08-04 11:02:33 AM,-,1628067631956,
2021-08-04 11:02:33 AM,-,1628067631960,
2021-08-04 11:02:33 AM,-,1628067631963,
2021-08-04 11:02:33 AM,-,1628067631966,
2021-08-04 11:02:33 AM,-,1628067631970,
2021-08-04 11:02:33 AM,-,1628067631973,
2021-08-04 11:02:33 AM,-,1628067631976,
2021-08-04 11:02:33 AM,-,1628067631980,
2021-08-04 11:02:33 AM,-,1628067631983,
2021-08-04 11:02:33 AM,-,1628067631986,
2021-08-04 11:02:33 AM,-,1628067631990,
2021-08-04 11:02:33 AM,-,1628067631993,
2021-08-04 11:02:33 AM,-,1628067631996,
2021-08-04 11:02:34 AM,-,1628067632000,
2021-08-04 11:02:34 AM,-,1628067632003,
2021-08-04 11:02:34 AM,-,1628067632006,
2021-08-04 11:02:34 AM,-,1628067632010,
2021-08-04 11:02:34 AM,-,1628067632013,
2021-08-04 11:02:34 AM,-,1628067632016,
2021-08-04 11:02:34 AM,-,1628067632020,
2021-08-04 11:02:34 AM,-,1628067632023,
2021-08-04 11:02:34 AM,-,1628067632026,
2021-08-04 11:02:34 AM,-,1628067632030,
2021-08-04 11:02:34 AM,-,1628067632033,
2021-08-04 11:02:34 AM,-,1628067632036,
2021-08-04 11:02:34 AM,-,1628067632040,
2021-08-04 11:02:34 AM,-,1628067632043,
2021-08-04 11:02:34 AM,-,1628067632046,
2021-08-04 11:02:34 AM,-,1628067632050,
2021-08-04 11:02:34 AM,-,1628067632053,
2021-08-04 11:02:34 AM,-,1628067632056,
2021-08-04 11:02:34 AM,-,1628067632060,
2021-08-04 11:02:34 AM,-,1628067632063,
2021-08-04 11:02:34 AM,-,1628067632066,
2021-08-04 11:02:34 AM,-,1628067632070,
2021-08-04 11:02:34 AM,-,1628067632073,
2021-08-04 11:02:34 AM,-,1628067632076,
2021-08-04 11:02:34 AM,-,1628067632080,
2021-08-04 11:02:34 AM,-,1628067632083,
2021-08-04 11:02:34 AM,-,1628067632086,
2021-08-04 11:02:34 AM,-,1628067632090,
2021-08-04 11:02:34 AM,-,1628067632093,
2021-08-04 11:02:34 AM,-,1628067632096,
2021-08-04 11:02:34 AM,-,1628067632100,
2021-08-04 11:02:34 AM,-,1628067632103,
2021-08-04 11:02:34 AM,-,1628067632106,
2021-08-04 11:02:34 AM,-,1628067632110,
2021-08-04 11:02:34 AM,-,1628067632113,
2021-08-04 11:02:34 AM,-,1628067632116,
2021-08-04 11:02:34 AM,-,1628067632120,
2021-08-04 11:02:34 AM,-,1628067632123,
2021-08-04 11:02:34 AM,-,1628067632126,
2021-08-04 11:02:34 AM,-,1628067632130,
2021-08-04 11:02:34 AM,-,1628067632133,
2021-08-04 11:02:34 AM,-,1628067632136,
2021-08-04 11:02:34 AM,-,1628067632140,
2021-08-04 11:02:34 AM,-,1628067632143,
2021-08-04 11:02:34 AM,-,1628067632146,
2021-08-04 11:02:34 AM,-,1628067632150,
2021-08-04 11:02:34 AM,-,1628067632153,
2021-08-04 11:02:34 AM,-,1628067632156,
2021-08-04 11:02:34 AM,-,1628067632160,
2021-08-04 11:02:34 AM,-,1628067632163,
2021-08-04 11:02:34 AM,-,1628067632166,
2021-08-04 11:02:34 AM,-,1628067632170,
2021-08-04 11:02:34 AM,-,1628067632173,
2021-08-04 11:02:34 AM,-,1628067632176,
2021-08-04 11:02:34 AM,-,1628067632180,
2021-08-04 11:02:34 AM,-,1628067632183,
2021-08-04 11:02:34 AM,-,1628067632186,
2021-08-04 11:02:34 AM,-,1628067632190,
2021-08-04 11:02:34 AM,-,1628067632193,
2021-08-04 11:02:34 AM,-,1628067632196,
2021-08-04 11:02:34 AM,-,1628067632200,
2021-08-04 11:02:34 AM,-,1628067632203,
2021-08-04 11:02:34 AM,-,1628067632206,
2021-08-04 11:02:34 AM,-,1628067632210,
2021-08-04 11:02:34 AM,-,1628067632213,
2021-08-04 11:02:34 AM,-,1628067632216,
2021-08-04 11:02:34 AM,-,1628067632220,
2021-08-04 11:02:34 AM,-,1628067632223,
2021-08-04 11:02:34 AM,-,1628067632226,
2021-08-04 11:02:34 AM,-,1628067632230,
2021-08-04 11:02:34 AM,-,1628067632233,
2021-08-04 11:02:34 AM,-,1628067632236,
2021-08-04 11:02:34 AM,-,1628067632240,
2021-08-04 11:02:34 AM,-,1628067632243,
2021-08-04 11:02:34 AM,-,1628067632246,
2021-08-04 11:02:34 AM,-,1628067632250,
2021-08-04 11:02:34 AM,-,1628067632253,
2021-08-04 11:02:34 AM,-,1628067632256,
2021-08-04 11:02:34 AM,-,1628067632260,
2021-08-04 11:02:34 AM,-,1628067632263,
2021-08-04 11:02:34 AM,-,1628067632266,
2021-08-04 11:02:34 AM,-,1628067632270,
2021-08-04 11:02:34 AM,-,1628067632273,
2021-08-04 11:02:34 AM,-,1628067632276,
2021-08-04 11:02:34 AM,-,1628067632280,
2021-08-04 11:02:34 AM,-,1628067632283,
2021-08-04 11:02:34 AM,-,1628067632286,
2021-08-04 11:02:34 AM,-,1628067632290,
2021-08-04 11:02:34 AM,-,1628067632293,
2021-08-04 11:02:34 AM,-,1628067632296,
2021-08-04 11:02:34 AM,-,1628067632300,
2021-08-04 11:02:34 AM,-,1628067632303,
2021-08-04 11:02:34 AM,-,1628067632306,
2021-08-04 11:02:34 AM,-,1628067632310,
2021-08-04 11:02:34 AM,-,1628067632313,
2021-08-04 11:02:34 AM,-,1628067632316,
2021-08-04 11:02:34 AM,-,1628067632320,
2021-08-04 11:02:34 AM,-,1628067632323,
2021-08-04 11:02:34 AM,-,1628067632326,
2021-08-04 11:02:34 AM,-,1628067632330,
2021-08-04 11:02:34 AM,-,1628067632333,
2021-08-04 11:02:34 AM,-,1628067632336,
2021-08-04 11:02:34 AM,-,1628067632340,
2021-08-04 11:02:34 AM,-,1628067632343,
2021-08-04 11:02:34 AM,-,1628067632346,
2021-08-04 11:02:34 AM,-,1628067632350,
2021-08-04 11:02:34 AM,-,1628067632353,
2021-08-04 11:02:34 AM,-,1628067632356,
2021-08-04 11:02:34 AM,-,1628067632360,
2021-08-04 11:02:34 AM,-,1628067632363,
2021-08-04 11:02:34 AM,-,1628067632366,
2021-08-04 11:02:34 AM,-,1628067632370,
2021-08-04 11:02:34 AM,-,1628067632373,
2021-08-04 11:02:34 AM,-,1628067632376,
2021-08-04 11:02:34 AM,-,1628067632380,
2021-08-04 11:02:34 AM,-,1628067632383,
2021-08-04 11:02:34 AM,-,1628067632386,
2021-08-04 11:02:34 AM,-,1628067632390,
2021-08-04 11:02:34 AM,-,1628067632393,
2021-08-04 11:02:34 AM,-,1628067632396,
2021-08-04 11:02:34 AM,-,1628067632400,
2021-08-04 11:02:34 AM,-,1628067632403,
2021-08-04 11:02:34 AM,-,1628067632406,
2021-08-04 11:02:34 AM,-,1628067632410,
2021-08-04 11:02:34 AM,-,1628067632413,
2021-08-04 11:02:34 AM,-,1628067632416,
2021-08-04 11:02:34 AM,-,1628067632420,
2021-08-04 11:02:34 AM,-,1628067632423,
2021-08-04 11:02:34 AM,-,1628067632426,
2021-08-04 11:02:34 AM,-,1628067632430,
2021-08-04 11:02:34 AM,-,1628067632433,
2021-08-04 11:02:34 AM,-,1628067632436,
2021-08-04 11:02:34 AM,-,1628067632440,
2021-08-04 11:02:34 AM,-,1628067632443,
2021-08-04 11:02:34 AM,-,1628067632446,
2021-08-04 11:02:34 AM,-,1628067632450,
2021-08-04 11:02:34 AM,-,1628067632453,
2021-08-04 11:02:34 AM,-,1628067632456,
2021-08-04 11:02:34 AM,-,1628067632460,
2021-08-04 11:02:34 AM,-,1628067632463,
2021-08-04 11:02:34 AM,-,1628067632466,
2021-08-04 11:02:34 AM,-,1628067632470,
2021-08-04 11:02:34 AM,-,1628067632473,
2021-08-04 11:02:34 AM,-,1628067632476,
2021-08-04 11:02:34 AM,-,1628067632480,
2021-08-04 11:02:34 AM,-,1628067632483,
2021-08-04 11:02:34 AM,-,1628067632486,
2021-08-04 11:02:34 AM,-,1628067632490,
2021-08-04 11:02:34 AM,-,1628067632493,
2021-08-04 11:02:34 AM,-,1628067632496,
2021-08-04 11:02:34 AM,-,1628067632500,
2021-08-04 11:02:34 AM,-,1628067632503,
2021-08-04 11:02:34 AM,-,1628067632506,
2021-08-04 11:02:34 AM,-,1628067632510,
2021-08-04 11:02:34 AM,-,1628067632513,
2021-08-04 11:02:34 AM,-,1628067632516,
2021-08-04 11:02:34 AM,-,1628067632520,
2021-08-04 11:02:34 AM,-,1628067632523,
2021-08-04 11:02:34 AM,-,1628067632526,
2021-08-04 11:02:34 AM,-,1628067632530,
2021-08-04 11:02:34 AM,-,1628067632533,
2021-08-04 11:02:34 AM,-,1628067632536,
2021-08-04 11:02:34 AM,-,1628067632540,
2021-08-04 11:02:34 AM,-,1628067632543,
2021-08-04 11:02:34 AM,-,1628067632546,
2021-08-04 11:02:34 AM,-,1628067632550,
2021-08-04 11:02:34 AM,-,1628067632553,
2021-08-04 11:02:34 AM,-,1628067632556,
2021-08-04 11:02:34 AM,-,1628067632560,
2021-08-04 11:02:34 AM,-,1628067632563,
2021-08-04 11:02:34 AM,-,1628067632566,
2021-08-04 11:02:34 AM,-,1628067632570,
2021-08-04 11:02:34 AM,-,1628067632573,
2021-08-04 11:02:34 AM,-,1628067632576,
2021-08-04 11:02:34 AM,-,1628067632580,
2021-08-04 11:02:34 AM,-,1628067632583,
2021-08-04 11:02:34 AM,-,1628067632586,
2021-08-04 11:02:34 AM,-,1628067632590,
2021-08-04 11:02:34 AM,-,1628067632593,
2021-08-04 11:02:34 AM,-,1628067632596,
2021-08-04 11:02:34 AM,-,1628067632600,
2021-08-04 11:02:34 AM,-,1628067632603,
2021-08-04 11:02:34 AM,-,1628067632606,
2021-08-04 11:02:34 AM,-,1628067632610,
2021-08-04 11:02:34 AM,-,1628067632613,
2021-08-04 11:02:34 AM,-,1628067632616,
2021-08-04 11:02:34 AM,-,1628067632620,
2021-08-04 11:02:34 AM,-,1628067632623,
2021-08-04 11:02:34 AM,-,1628067632626,
2021-08-04 11:02:34 AM,-,1628067632630,
2021-08-04 11:02:34 AM,-,1628067632633,
2021-08-04 11:02:34 AM,-,1628067632636,
2021-08-04 11:02:34 AM,-,1628067632640,
2021-08-04 11:02:34 AM,-,1628067632643,
2021-08-04 11:02:34 AM,-,1628067632646,
2021-08-04 11:02:34 AM,-,1628067632650,
2021-08-04 11:02:34 AM,-,1628067632653,
2021-08-04 11:02:34 AM,-,1628067632656,
2021-08-04 11:02:34 AM,-,1628067632660,
2021-08-04 11:02:34 AM,-,1628067632663,
2021-08-04 11:02:34 AM,-,1628067632666,
2021-08-04 11:02:34 AM,-,1628067632670,
2021-08-04 11:02:34 AM,-,1628067632673,
2021-08-04 11:02:34 AM,-,1628067632676,
2021-08-04 11:02:34 AM,-,1628067632680,
2021-08-04 11:02:34 AM,-,1628067632683,
2021-08-04 11:02:34 AM,-,1628067632686,
2021-08-04 11:02:34 AM,-,1628067632690,
2021-08-04 11:02:34 AM,-,1628067632693,
2021-08-04 11:02:34 AM,-,1628067632696,
2021-08-04 11:02:34 AM,-,1628067632700,
2021-08-04 11:02:34 AM,-,1628067632703,
2021-08-04 11:02:34 AM,-,1628067632706,
2021-08-04 11:02:34 AM,-,1628067632710,
2021-08-04 11:02:34 AM,-,1628067632713,
2021-08-04 11:02:34 AM,-,1628067632716,
2021-08-04 11:02:34 AM,-,1628067632720,
2021-08-04 11:02:34 AM,-,1628067632723,
2021-08-04 11:02:34 AM,-,1628067632726,
2021-08-04 11:02:34 AM,-,1628067632730,
2021-08-04 11:02:34 AM,-,1628067632733,
2021-08-04 11:02:34 AM,-,1628067632736,
2021-08-04 11:02:34 AM,-,1628067632740,
2021-08-04 11:02:34 AM,-,1628067632743,
2021-08-04 11:02:34 AM,-,1628067632746,
2021-08-04 11:02:34 AM,-,1628067632750,
2021-08-04 11:02:34 AM,-,1628067632753,
2021-08-04 11:02:34 AM,-,1628067632756,
2021-08-04 11:02:34 AM,-,1628067632760,
2021-08-04 11:02:34 AM,-,1628067632763,
2021-08-04 11:02:34 AM,-,1628067632766,
2021-08-04 11:02:34 AM,-,1628067632770,
2021-08-04 11:02:34 AM,-,1628067632773,
2021-08-04 11:02:34 AM,-,1628067632776,
2021-08-04 11:02:34 AM,-,1628067632780,
2021-08-04 11:02:34 AM,-,1628067632783,
2021-08-04 11:02:34 AM,-,1628067632786,
2021-08-04 11:02:34 AM,-,1628067632790,
2021-08-04 11:02:34 AM,-,1628067632793,
2021-08-04 11:02:34 AM,-,1628067632796,
2021-08-04 11:02:34 AM,-,1628067632800,
2021-08-04 11:02:34 AM,-,1628067632803,
2021-08-04 11:02:34 AM,-,1628067632806,
2021-08-04 11:02:34 AM,-,1628067632810,
2021-08-04 11:02:34 AM,-,1628067632813,
2021-08-04 11:02:34 AM,-,1628067632816,
2021-08-04 11:02:34 AM,-,1628067632820,
2021-08-04 11:02:34 AM,-,1628067632823,
2021-08-04 11:02:34 AM,-,1628067632826,
2021-08-04 11:02:34 AM,-,1628067632830,
2021-08-04 11:02:34 AM,-,1628067632833,
2021-08-04 11:02:34 AM,-,1628067632836,
2021-08-04 11:02:34 AM,-,1628067632840,
2021-08-04 11:02:34 AM,-,1628067632843,
2021-08-04 11:02:34 AM,-,1628067632846,
2021-08-04 11:02:34 AM,-,1628067632850,
2021-08-04 11:02:34 AM,-,1628067632853,
2021-08-04 11:02:34 AM,-,1628067632856,
2021-08-04 11:02:34 AM,-,1628067632860,
2021-08-04 11:02:34 AM,-,1628067632863,
2021-08-04 11:02:34 AM,-,1628067632866,
2021-08-04 11:02:34 AM,-,1628067632870,
2021-08-04 11:02:34 AM,-,1628067632873,
2021-08-04 11:02:34 AM,-,1628067632876,
2021-08-04 11:02:34 AM,-,1628067632880,
2021-08-04 11:02:34 AM,-,1628067632883,
2021-08-04 11:02:34 AM,-,1628067632886,
2021-08-04 11:02:34 AM,-,1628067632890,
2021-08-04 11:02:34 AM,-,1628067632893,
2021-08-04 11:02:34 AM,-,1628067632896,
2021-08-04 11:02:34 AM,-,1628067632900,
2021-08-04 11:02:34 AM,-,1628067632903,
2021-08-04 11:02:34 AM,-,1628067632906,
2021-08-04 11:02:34 AM,-,1628067632910,
2021-08-04 11:02:34 AM,-,1628067632913,
2021-08-04 11:02:34 AM,-,1628067632916,
2021-08-04 11:02:34 AM,-,1628067632920,
2021-08-04 11:02:34 AM,-,1628067632923,
2021-08-04 11:02:34 AM,-,1628067632926,
2021-08-04 11:02:34 AM,-,1628067632930,
2021-08-04 11:02:34 AM,-,1628067632933,
2021-08-04 11:02:34 AM,-,1628067632936,
2021-08-04 11:02:34 AM,-,1628067632940,
2021-08-04 11:02:34 AM,-,1628067632943,
2021-08-04 11:02:34 AM,-,1628067632946,
2021-08-04 11:02:34 AM,-,1628067632950,
2021-08-04 11:02:34 AM,-,1628067632953,
2021-08-04 11:02:34 AM,-,1628067632956,
2021-08-04 11:02:34 AM,-,1628067632960,
2021-08-04 11:02:34 AM,-,1628067632963,
2021-08-04 11:02:34 AM,-,1628067632966,
2021-08-04 11:02:34 AM,-,1628067632970,
2021-08-04 11:02:34 AM,-,1628067632973,
2021-08-04 11:02:34 AM,-,1628067632976,
2021-08-04 11:02:34 AM,-,1628067632980,
2021-08-04 11:02:34 AM,-,1628067632983,
2021-08-04 11:02:34 AM,-,1628067632986,
2021-08-04 11:02:34 AM,-,1628067632990,
2021-08-04 11:02:34 AM,-,1628067632993,
2021-08-04 11:02:34 AM,-,1628067632996,
2021-08-04 11:02:35 AM,-,1628067633000,
2021-08-04 11:02:35 AM,-,1628067633003,
2021-08-04 11:02:35 AM,-,1628067633006,
2021-08-04 11:02:35 AM,-,1628067633010,
2021-08-04 11:02:35 AM,-,1628067633013,
2021-08-04 11:02:35 AM,-,1628067633016,
2021-08-04 11:02:35 AM,-,1628067633020,
2021-08-04 11:02:35 AM,-,1628067633023,
2021-08-04 11:02:35 AM,-,1628067633026,
2021-08-04 11:02:35 AM,-,1628067633030,
2021-08-04 11:02:35 AM,-,1628067633033,
2021-08-04 11:02:35 AM,-,1628067633036,
2021-08-04 11:02:35 AM,-,1628067633040,
2021-08-04 11:02:35 AM,-,1628067633043,
2021-08-04 11:02:35 AM,-,1628067633046,
2021-08-04 11:02:35 AM,-,1628067633050,
2021-08-04 11:02:35 AM,-,1628067633053,
2021-08-04 11:02:35 AM,-,1628067633056,
2021-08-04 11:02:35 AM,-,1628067633060,
2021-08-04 11:02:35 AM,-,1628067633063,
2021-08-04 11:02:35 AM,-,1628067633066,
2021-08-04 11:02:35 AM,-,1628067633070,
2021-08-04 11:02:35 AM,-,1628067633073,
2021-08-04 11:02:35 AM,-,1628067633076,
2021-08-04 11:02:35 AM,-,1628067633080,
2021-08-04 11:02:35 AM,-,1628067633083,
2021-08-04 11:02:35 AM,-,1628067633086,
2021-08-04 11:02:35 AM,-,1628067633090,
2021-08-04 11:02:35 AM,-,1628067633093,
2021-08-04 11:02:35 AM,-,1628067633096,
2021-08-04 11:02:35 AM,-,1628067633100,
2021-08-04 11:02:35 AM,-,1628067633103,
2021-08-04 11:02:35 AM,-,1628067633106,
2021-08-04 11:02:35 AM,-,1628067633110,
2021-08-04 11:02:35 AM,-,1628067633113,
2021-08-04 11:02:35 AM,-,1628067633116,
2021-08-04 11:02:35 AM,-,1628067633120,
2021-08-04 11:02:35 AM,-,1628067633123,
2021-08-04 11:02:35 AM,-,1628067633126,
2021-08-04 11:02:35 AM,-,1628067633130,
2021-08-04 11:02:35 AM,-,1628067633133,
2021-08-04 11:02:35 AM,-,1628067633136,
2021-08-04 11:02:35 AM,-,1628067633140,
2021-08-04 11:02:35 AM,-,1628067633143,
2021-08-04 11:02:35 AM,-,1628067633146,
2021-08-04 11:02:35 AM,-,1628067633150,
2021-08-04 11:02:35 AM,-,1628067633153,
2021-08-04 11:02:35 AM,-,1628067633156,
2021-08-04 11:02:35 AM,-,1628067633160,
2021-08-04 11:02:35 AM,-,1628067633163,
2021-08-04 11:02:35 AM,-,1628067633166,
2021-08-04 11:02:35 AM,-,1628067633170,
2021-08-04 11:02:35 AM,-,1628067633173,
2021-08-04 11:02:35 AM,-,1628067633176,
2021-08-04 11:02:35 AM,-,1628067633180,
2021-08-04 11:02:35 AM,-,1628067633183,
2021-08-04 11:02:35 AM,-,1628067633186,
2021-08-04 11:02:35 AM,-,1628067633190,
2021-08-04 11:02:35 AM,-,1628067633193,
2021-08-04 11:02:35 AM,-,1628067633196,
2021-08-04 11:02:35 AM,-,1628067633200,
2021-08-04 11:02:35 AM,-,1628067633203,
2021-08-04 11:02:35 AM,-,1628067633206,
2021-08-04 11:02:35 AM,-,1628067633210,
2021-08-04 11:02:35 AM,-,1628067633213,
2021-08-04 11:02:35 AM,-,1628067633216,
2021-08-04 11:02:35 AM,-,1628067633220,
2021-08-04 11:02:35 AM,-,1628067633223,
2021-08-04 11:02:35 AM,-,1628067633226,
2021-08-04 11:02:35 AM,-,1628067633230,
2021-08-04 11:02:35 AM,-,1628067633233,
2021-08-04 11:02:35 AM,-,1628067633236,
2021-08-04 11:02:35 AM,-,1628067633240,
2021-08-04 11:02:35 AM,-,1628067633243,
2021-08-04 11:02:35 AM,-,1628067633246,
2021-08-04 11:02:35 AM,-,1628067633250,
2021-08-04 11:02:35 AM,-,1628067633253,
2021-08-04 11:02:35 AM,-,1628067633256,
2021-08-04 11:02:35 AM,-,1628067633260,
2021-08-04 11:02:35 AM,-,1628067633263,
2021-08-04 11:02:35 AM,-,1628067633266,
2021-08-04 11:02:35 AM,-,1628067633270,
2021-08-04 11:02:35 AM,-,1628067633273,
2021-08-04 11:02:35 AM,-,1628067633276,
2021-08-04 11:02:35 AM,-,1628067633280,
2021-08-04 11:02:35 AM,-,1628067633283,
2021-08-04 11:02:35 AM,-,1628067633286,
2021-08-04 11:02:35 AM,-,1628067633290,
2021-08-04 11:02:35 AM,-,1628067633293,
2021-08-04 11:02:35 AM,-,1628067633296,
2021-08-04 11:02:35 AM,-,1628067633300,
2021-08-04 11:02:35 AM,-,1628067633303,
2021-08-04 11:02:35 AM,-,1628067633306,
2021-08-04 11:02:35 AM,-,1628067633310,
2021-08-04 11:02:35 AM,-,1628067633313,
2021-08-04 11:02:35 AM,-,1628067633316,
2021-08-04 11:02:35 AM,-,1628067633320,
2021-08-04 11:02:35 AM,-,1628067633323,
2021-08-04 11:02:35 AM,-,1628067633326,
2021-08-04 11:02:35 AM,-,1628067633330,
2021-08-04 11:02:35 AM,-,1628067633333,
2021-08-04 11:02:35 AM,-,1628067633336,
2021-08-04 11:02:35 AM,-,1628067633340,
2021-08-04 11:02:35 AM,-,1628067633343,
2021-08-04 11:02:35 AM,-,1628067633346,
2021-08-04 11:02:35 AM,-,1628067633350,
2021-08-04 11:02:35 AM,-,1628067633353,
2021-08-04 11:02:35 AM,-,1628067633356,
2021-08-04 11:02:35 AM,-,1628067633360,
2021-08-04 11:02:35 AM,-,1628067633363,
2021-08-04 11:02:35 AM,-,1628067633366,
2021-08-04 11:02:35 AM,-,1628067633370,
2021-08-04 11:02:35 AM,-,1628067633373,
2021-08-04 11:02:35 AM,-,1628067633376,
2021-08-04 11:02:35 AM,-,1628067633380,
2021-08-04 11:02:35 AM,-,1628067633383,
2021-08-04 11:02:35 AM,-,1628067633386,
2021-08-04 11:02:35 AM,-,1628067633390,
2021-08-04 11:02:35 AM,-,1628067633393,
2021-08-04 11:02:35 AM,-,1628067633396,
2021-08-04 11:02:35 AM,-,1628067633400,
2021-08-04 11:02:35 AM,-,1628067633403,
2021-08-04 11:02:35 AM,-,1628067633406,
2021-08-04 11:02:35 AM,-,1628067633410,
2021-08-04 11:02:35 AM,-,1628067633413,
2021-08-04 11:02:35 AM,-,1628067633416,
2021-08-04 11:02:35 AM,-,1628067633420,
2021-08-04 11:02:35 AM,-,1628067633423,
2021-08-04 11:02:35 AM,-,1628067633426,
2021-08-04 11:02:35 AM,-,1628067633430,
2021-08-04 11:02:35 AM,-,1628067633433,
2021-08-04 11:02:35 AM,-,1628067633436,
2021-08-04 11:02:35 AM,-,1628067633440,
2021-08-04 11:02:35 AM,-,1628067633443,
2021-08-04 11:02:35 AM,-,1628067633446,
2021-08-04 11:02:35 AM,-,1628067633450,
2021-08-04 11:02:35 AM,-,1628067633453,
2021-08-04 11:02:35 AM,-,1628067633456,
2021-08-04 11:02:35 AM,-,1628067633460,
2021-08-04 11:02:35 AM,-,1628067633463,
2021-08-04 11:02:35 AM,-,1628067633466,
2021-08-04 11:02:35 AM,-,1628067633470,
2021-08-04 11:02:35 AM,-,1628067633473,
2021-08-04 11:02:35 AM,-,1628067633476,
2021-08-04 11:02:35 AM,-,1628067633480,
2021-08-04 11:02:35 AM,-,1628067633483,
2021-08-04 11:02:35 AM,-,1628067633486,
2021-08-04 11:02:35 AM,-,1628067633490,
2021-08-04 11:02:35 AM,-,1628067633493,
2021-08-04 11:02:35 AM,-,1628067633496,
2021-08-04 11:02:35 AM,-,1628067633500,
2021-08-04 11:02:35 AM,-,1628067633503,
2021-08-04 11:02:35 AM,-,1628067633506,
2021-08-04 11:02:35 AM,-,1628067633510,
2021-08-04 11:02:35 AM,-,1628067633513,
2021-08-04 11:02:35 AM,-,1628067633516,
2021-08-04 11:02:35 AM,-,1628067633520,
2021-08-04 11:02:35 AM,-,1628067633523,
2021-08-04 11:02:35 AM,-,1628067633526,
2021-08-04 11:02:35 AM,-,1628067633530,
2021-08-04 11:02:35 AM,-,1628067633533,
2021-08-04 11:02:35 AM,-,1628067633536,
2021-08-04 11:02:35 AM,-,1628067633540,
2021-08-04 11:02:35 AM,-,1628067633543,
2021-08-04 11:02:35 AM,-,1628067633546,
2021-08-04 11:02:35 AM,-,1628067633550,
2021-08-04 11:02:35 AM,-,1628067633553,
2021-08-04 11:02:35 AM,-,1628067633556,
2021-08-04 11:02:35 AM,-,1628067633560,
2021-08-04 11:02:35 AM,-,1628067633563,
2021-08-04 11:02:35 AM,-,1628067633566,
2021-08-04 11:02:35 AM,-,1628067633570,
2021-08-04 11:02:35 AM,-,1628067633573,
2021-08-04 11:02:35 AM,-,1628067633576,
2021-08-04 11:02:35 AM,-,1628067633580,
2021-08-04 11:02:35 AM,-,1628067633583,
2021-08-04 11:02:35 AM,-,1628067633586,
2021-08-04 11:02:35 AM,-,1628067633590,
2021-08-04 11:02:35 AM,-,1628067633593,
2021-08-04 11:02:35 AM,-,1628067633596,
2021-08-04 11:02:35 AM,-,1628067633600,
2021-08-04 11:02:35 AM,-,1628067633603,
2021-08-04 11:02:35 AM,-,1628067633606,
2021-08-04 11:02:35 AM,-,1628067633610,
2021-08-04 11:02:35 AM,-,1628067633613,
2021-08-04 11:02:35 AM,-,1628067633616,
2021-08-04 11:02:35 AM,-,1628067633620,
2021-08-04 11:02:35 AM,-,1628067633623,
2021-08-04 11:02:35 AM,-,1628067633626,
2021-08-04 11:02:35 AM,-,1628067633630,
2021-08-04 11:02:35 AM,-,1628067633633,
2021-08-04 11:02:35 AM,-,1628067633636,
2021-08-04 11:02:35 AM,-,1628067633640,
2021-08-04 11:02:35 AM,-,1628067633643,
2021-08-04 11:02:35 AM,-,1628067633646,
2021-08-04 11:02:35 AM,-,1628067633650,
2021-08-04 11:02:35 AM,-,1628067633653,
2021-08-04 11:02:35 AM,-,1628067633656,
2021-08-04 11:02:35 AM,-,1628067633660,
2021-08-04 11:02:35 AM,-,1628067633663,
2021-08-04 11:02:35 AM,-,1628067633666,
2021-08-04 11:02:35 AM,-,1628067633670,
2021-08-04 11:02:35 AM,-,1628067633673,
2021-08-04 11:02:35 AM,-,1628067633676,
2021-08-04 11:02:35 AM,-,1628067633680,
2021-08-04 11:02:35 AM,-,1628067633683,
2021-08-04 11:02:35 AM,-,1628067633686,
2021-08-04 11:02:35 AM,-,1628067633690,
2021-08-04 11:02:35 AM,-,1628067633693,
2021-08-04 11:02:35 AM,-,1628067633696,
2021-08-04 11:02:35 AM,-,1628067633700,
2021-08-04 11:02:35 AM,-,1628067633703,
2021-08-04 11:02:35 AM,-,1628067633706,
2021-08-04 11:02:35 AM,-,1628067633710,
2021-08-04 11:02:35 AM,-,1628067633713,
2021-08-04 11:02:35 AM,-,1628067633716,
2021-08-04 11:02:35 AM,-,1628067633720,
2021-08-04 11:02:35 AM,-,1628067633723,
2021-08-04 11:02:35 AM,-,1628067633726,
2021-08-04 11:02:35 AM,-,1628067633730,
2021-08-04 11:02:35 AM,-,1628067633733,
2021-08-04 11:02:35 AM,-,1628067633736,
2021-08-04 11:02:35 AM,-,1628067633740,
2021-08-04 11:02:35 AM,-,1628067633743,
2021-08-04 11:02:35 AM,-,1628067633746,
2021-08-04 11:02:35 AM,-,1628067633750,
2021-08-04 11:02:35 AM,-,1628067633753,
2021-08-04 11:02:35 AM,-,1628067633756,
2021-08-04 11:02:35 AM,-,1628067633760,
2021-08-04 11:02:35 AM,-,1628067633763,
2021-08-04 11:02:35 AM,-,1628067633766,
2021-08-04 11:02:35 AM,-,1628067633770,
2021-08-04 11:02:35 AM,-,1628067633773,
2021-08-04 11:02:35 AM,-,1628067633776,
2021-08-04 11:02:35 AM,-,1628067633780,
2021-08-04 11:02:35 AM,-,1628067633783,
2021-08-04 11:02:35 AM,-,1628067633786,
2021-08-04 11:02:35 AM,-,1628067633790,
2021-08-04 11:02:35 AM,-,1628067633793,
2021-08-04 11:02:35 AM,-,1628067633796,
2021-08-04 11:02:35 AM,-,1628067633800,
2021-08-04 11:02:35 AM,-,1628067633803,
2021-08-04 11:02:35 AM,-,1628067633806,
2021-08-04 11:02:35 AM,-,1628067633810,
2021-08-04 11:02:35 AM,-,1628067633813,
2021-08-04 11:02:35 AM,-,1628067633816,
2021-08-04 11:02:35 AM,-,1628067633820,
2021-08-04 11:02:35 AM,-,1628067633823,
2021-08-04 11:02:35 AM,-,1628067633826,
2021-08-04 11:02:35 AM,-,1628067633830,
2021-08-04 11:02:35 AM,-,1628067633833,
2021-08-04 11:02:35 AM,-,1628067633836,
2021-08-04 11:02:35 AM,-,1628067633840,
2021-08-04 11:02:35 AM,-,1628067633843,
2021-08-04 11:02:35 AM,-,1628067633846,
2021-08-04 11:02:35 AM,-,1628067633850,
2021-08-04 11:02:35 AM,-,1628067633853,
2021-08-04 11:02:35 AM,-,1628067633856,
2021-08-04 11:02:35 AM,-,1628067633860,
2021-08-04 11:02:35 AM,-,1628067633863,
2021-08-04 11:02:35 AM,-,1628067633866,
2021-08-04 11:02:35 AM,-,1628067633870,
2021-08-04 11:02:35 AM,-,1628067633873,
2021-08-04 11:02:35 AM,-,1628067633876,
2021-08-04 11:02:35 AM,-,1628067633880,
2021-08-04 11:02:35 AM,-,1628067633883,
2021-08-04 11:02:35 AM,-,1628067633886,
2021-08-04 11:02:35 AM,-,1628067633890,
2021-08-04 11:02:35 AM,-,1628067633893,
2021-08-04 11:02:35 AM,-,1628067633896,
2021-08-04 11:02:35 AM,-,1628067633900,
2021-08-04 11:02:35 AM,-,1628067633903,
2021-08-04 11:02:35 AM,-,1628067633906,
2021-08-04 11:02:35 AM,-,1628067633910,
2021-08-04 11:02:35 AM,-,1628067633913,
2021-08-04 11:02:35 AM,-,1628067633916,
2021-08-04 11:02:35 AM,-,1628067633920,
2021-08-04 11:02:35 AM,-,1628067633923,
2021-08-04 11:02:35 AM,-,1628067633926,
2021-08-04 11:02:35 AM,-,1628067633930,
2021-08-04 11:02:35 AM,-,1628067633933,
2021-08-04 11:02:35 AM,-,1628067633936,
2021-08-04 11:02:35 AM,-,1628067633940,
2021-08-04 11:02:35 AM,-,1628067633943,
2021-08-04 11:02:35 AM,-,1628067633946,
2021-08-04 11:02:35 AM,-,1628067633950,
2021-08-04 11:02:35 AM,-,1628067633953,
2021-08-04 11:02:35 AM,-,1628067633956,
2021-08-04 11:02:35 AM,-,1628067633960,
2021-08-04 11:02:35 AM,-,1628067633963,
2021-08-04 11:02:35 AM,-,1628067633966,
2021-08-04 11:02:35 AM,-,1628067633970,
2021-08-04 11:02:35 AM,-,1628067633973,
2021-08-04 11:02:35 AM,-,1628067633976,
2021-08-04 11:02:35 AM,-,1628067633980,
2021-08-04 11:02:35 AM,-,1628067633983,
2021-08-04 11:02:35 AM,-,1628067633986,
2021-08-04 11:02:35 AM,-,1628067633990,
2021-08-04 11:02:35 AM,-,1628067633993,
2021-08-04 11:02:35 AM,-,1628067633996,
2021-08-04 11:02:36 AM,-,1628067634000,
2021-08-04 11:02:36 AM,-,1628067634003,
2021-08-04 11:02:36 AM,-,1628067634006,
2021-08-04 11:02:36 AM,-,1628067634010,
2021-08-04 11:02:36 AM,-,1628067634013,
2021-08-04 11:02:36 AM,-,1628067634016,
2021-08-04 11:02:36 AM,-,1628067634020,
2021-08-04 11:02:36 AM,-,1628067634023,
2021-08-04 11:02:36 AM,-,1628067634026,
2021-08-04 11:02:36 AM,-,1628067634030,
2021-08-04 11:02:36 AM,-,1628067634033,
2021-08-04 11:02:36 AM,-,1628067634036,
2021-08-04 11:02:36 AM,-,1628067634040,
2021-08-04 11:02:36 AM,-,1628067634043,
2021-08-04 11:02:36 AM,-,1628067634046,
2021-08-04 11:02:36 AM,-,1628067634050,
2021-08-04 11:02:36 AM,-,1628067634053,
2021-08-04 11:02:36 AM,-,1628067634056,
2021-08-04 11:02:36 AM,-,1628067634060,
2021-08-04 11:02:36 AM,-,1628067634063,
2021-08-04 11:02:36 AM,-,1628067634066,
2021-08-04 11:02:36 AM,-,1628067634070,
2021-08-04 11:02:36 AM,-,1628067634073,
2021-08-04 11:02:36 AM,-,1628067634076,
2021-08-04 11:02:36 AM,-,1628067634080,
2021-08-04 11:02:36 AM,-,1628067634083,
2021-08-04 11:02:36 AM,-,1628067634086,
2021-08-04 11:02:36 AM,-,1628067634090,
2021-08-04 11:02:36 AM,-,1628067634093,
2021-08-04 11:02:36 AM,-,1628067634096,
2021-08-04 11:02:36 AM,-,1628067634100,
2021-08-04 11:02:36 AM,-,1628067634103,
2021-08-04 11:02:36 AM,-,1628067634106,
2021-08-04 11:02:36 AM,-,1628067634110,
2021-08-04 11:02:36 AM,-,1628067634113,
2021-08-04 11:02:36 AM,-,1628067634116,
2021-08-04 11:02:36 AM,-,1628067634120,
2021-08-04 11:02:36 AM,-,1628067634123,
2021-08-04 11:02:36 AM,-,1628067634126,
2021-08-04 11:02:36 AM,-,1628067634130,
2021-08-04 11:02:36 AM,-,1628067634133,
2021-08-04 11:02:36 AM,-,1628067634136,
2021-08-04 11:02:36 AM,-,1628067634140,
2021-08-04 11:02:36 AM,-,1628067634143,
2021-08-04 11:02:36 AM,-,1628067634146,
2021-08-04 11:02:36 AM,-,1628067634150,
2021-08-04 11:02:36 AM,-,1628067634153,
2021-08-04 11:02:36 AM,-,1628067634156,
2021-08-04 11:02:36 AM,-,1628067634160,
2021-08-04 11:02:36 AM,-,1628067634163,
2021-08-04 11:02:36 AM,-,1628067634166,
2021-08-04 11:02:36 AM,-,1628067634170,
2021-08-04 11:02:36 AM,-,1628067634173,
2021-08-04 11:02:36 AM,-,1628067634176,
2021-08-04 11:02:36 AM,-,1628067634180,
2021-08-04 11:02:36 AM,-,1628067634183,
2021-08-04 11:02:36 AM,-,1628067634186,
2021-08-04 11:02:36 AM,-,1628067634190,
2021-08-04 11:02:36 AM,-,1628067634193,
2021-08-04 11:02:36 AM,-,1628067634196,
2021-08-04 11:02:36 AM,-,1628067634200,
2021-08-04 11:02:36 AM,-,1628067634203,
2021-08-04 11:02:36 AM,-,1628067634206,
2021-08-04 11:02:36 AM,-,1628067634210,
2021-08-04 11:02:36 AM,-,1628067634213,
2021-08-04 11:02:36 AM,-,1628067634216,
2021-08-04 11:02:36 AM,-,1628067634220,
2021-08-04 11:02:36 AM,-,1628067634223,
2021-08-04 11:02:36 AM,-,1628067634226,
2021-08-04 11:02:36 AM,-,1628067634230,
2021-08-04 11:02:36 AM,-,1628067634233,
2021-08-04 11:02:36 AM,-,1628067634236,
2021-08-04 11:02:36 AM,-,1628067634240,
2021-08-04 11:02:36 AM,-,1628067634243,
2021-08-04 11:02:36 AM,-,1628067634246,
2021-08-04 11:02:36 AM,-,1628067634250,
2021-08-04 11:02:36 AM,-,1628067634253,
2021-08-04 11:02:36 AM,-,1628067634256,
2021-08-04 11:02:36 AM,-,1628067634260,
2021-08-04 11:02:36 AM,-,1628067634263,
2021-08-04 11:02:36 AM,-,1628067634266,
2021-08-04 11:02:36 AM,-,1628067634270,
2021-08-04 11:02:36 AM,-,1628067634273,
2021-08-04 11:02:36 AM,-,1628067634276,
2021-08-04 11:02:36 AM,-,1628067634280,
2021-08-04 11:02:36 AM,-,1628067634283,
2021-08-04 11:02:36 AM,-,1628067634286,
2021-08-04 11:02:36 AM,-,1628067634290,
2021-08-04 11:02:36 AM,-,1628067634293,
2021-08-04 11:02:36 AM,-,1628067634296,
2021-08-04 11:02:36 AM,-,1628067634300,
2021-08-04 11:02:36 AM,-,1628067634303,
2021-08-04 11:02:36 AM,-,1628067634306,
2021-08-04 11:02:36 AM,-,1628067634310,
2021-08-04 11:02:36 AM,-,1628067634313,
2021-08-04 11:02:36 AM,-,1628067634316,
2021-08-04 11:02:36 AM,-,1628067634320,
2021-08-04 11:02:36 AM,-,1628067634323,
2021-08-04 11:02:36 AM,-,1628067634326,
2021-08-04 11:02:36 AM,-,1628067634330,
2021-08-04 11:02:36 AM,-,1628067634333,
2021-08-04 11:02:36 AM,-,1628067634336,
2021-08-04 11:02:36 AM,-,1628067634340,
2021-08-04 11:02:36 AM,-,1628067634343,
2021-08-04 11:02:36 AM,-,1628067634346,
2021-08-04 11:02:36 AM,-,1628067634350,
2021-08-04 11:02:36 AM,-,1628067634353,
2021-08-04 11:02:36 AM,-,1628067634356,
2021-08-04 11:02:36 AM,-,1628067634360,
2021-08-04 11:02:36 AM,-,1628067634363,
2021-08-04 11:02:36 AM,-,1628067634366,
2021-08-04 11:02:36 AM,-,1628067634370,
2021-08-04 11:02:36 AM,-,1628067634373,
2021-08-04 11:02:36 AM,-,1628067634376,
2021-08-04 11:02:36 AM,-,1628067634380,
2021-08-04 11:02:36 AM,-,1628067634383,
2021-08-04 11:02:36 AM,-,1628067634386,
2021-08-04 11:02:36 AM,-,1628067634390,
2021-08-04 11:02:36 AM,-,1628067634393,
2021-08-04 11:02:36 AM,-,1628067634396,
2021-08-04 11:02:36 AM,-,1628067634400,
2021-08-04 11:02:36 AM,-,1628067634403,
2021-08-04 11:02:36 AM,-,1628067634406,
2021-08-04 11:02:36 AM,-,1628067634410,
2021-08-04 11:02:36 AM,-,1628067634413,
2021-08-04 11:02:36 AM,-,1628067634416,
2021-08-04 11:02:36 AM,-,1628067634420,
2021-08-04 11:02:36 AM,-,1628067634423,
2021-08-04 11:02:36 AM,-,1628067634426,
2021-08-04 11:02:36 AM,-,1628067634430,
2021-08-04 11:02:36 AM,-,1628067634433,
2021-08-04 11:02:36 AM,-,1628067634436,
2021-08-04 11:02:36 AM,-,1628067634440,
2021-08-04 11:02:36 AM,-,1628067634443,
2021-08-04 11:02:36 AM,-,1628067634446,
2021-08-04 11:02:36 AM,-,1628067634450,
2021-08-04 11:02:36 AM,-,1628067634453,
2021-08-04 11:02:36 AM,-,1628067634456,
2021-08-04 11:02:36 AM,-,1628067634460,
2021-08-04 11:02:36 AM,-,1628067634463,
2021-08-04 11:02:36 AM,-,1628067634466,
2021-08-04 11:02:36 AM,-,1628067634470,
2021-08-04 11:02:36 AM,-,1628067634473,
2021-08-04 11:02:36 AM,-,1628067634476,
2021-08-04 11:02:36 AM,-,1628067634480,
2021-08-04 11:02:36 AM,-,1628067634483,
2021-08-04 11:02:36 AM,-,1628067634486,
2021-08-04 11:02:36 AM,-,1628067634490,
2021-08-04 11:02:36 AM,-,1628067634493,
2021-08-04 11:02:36 AM,-,1628067634496,
2021-08-04 11:02:36 AM,-,1628067634500,
2021-08-04 11:02:36 AM,-,1628067634503,
2021-08-04 11:02:36 AM,-,1628067634506,
2021-08-04 11:02:36 AM,-,1628067634510,
2021-08-04 11:02:36 AM,-,1628067634513,
2021-08-04 11:02:36 AM,-,1628067634516,
2021-08-04 11:02:36 AM,-,1628067634520,
2021-08-04 11:02:36 AM,-,1628067634523,
2021-08-04 11:02:36 AM,-,1628067634526,
2021-08-04 11:02:36 AM,-,1628067634530,
2021-08-04 11:02:36 AM,-,1628067634533,
2021-08-04 11:02:36 AM,-,1628067634536,
2021-08-04 11:02:36 AM,-,1628067634540,
2021-08-04 11:02:36 AM,-,1628067634543,
2021-08-04 11:02:36 AM,-,1628067634546,
2021-08-04 11:02:36 AM,-,1628067634550,
2021-08-04 11:02:36 AM,-,1628067634553,
2021-08-04 11:02:36 AM,-,1628067634556,
2021-08-04 11:02:36 AM,-,1628067634560,
2021-08-04 11:02:36 AM,-,1628067634563,
2021-08-04 11:02:36 AM,-,1628067634566,
2021-08-04 11:02:36 AM,-,1628067634570,
2021-08-04 11:02:36 AM,-,1628067634573,
2021-08-04 11:02:36 AM,-,1628067634576,
2021-08-04 11:02:36 AM,-,1628067634580,
2021-08-04 11:02:36 AM,-,1628067634583,
2021-08-04 11:02:36 AM,-,1628067634586,
2021-08-04 11:02:36 AM,-,1628067634590,
2021-08-04 11:02:36 AM,-,1628067634593,
2021-08-04 11:02:36 AM,-,1628067634596,
2021-08-04 11:02:36 AM,-,1628067634600,
2021-08-04 11:02:36 AM,-,1628067634603,
2021-08-04 11:02:36 AM,-,1628067634606,
2021-08-04 11:02:36 AM,-,1628067634610,
2021-08-04 11:02:36 AM,-,1628067634613,
2021-08-04 11:02:36 AM,-,1628067634616,
2021-08-04 11:02:36 AM,-,1628067634620,
2021-08-04 11:02:36 AM,-,1628067634623,
2021-08-04 11:02:36 AM,-,1628067634626,
2021-08-04 11:02:36 AM,-,1628067634630,
2021-08-04 11:02:36 AM,-,1628067634633,
2021-08-04 11:02:36 AM,-,1628067634636,
2021-08-04 11:02:36 AM,-,1628067634640,
2021-08-04 11:02:36 AM,-,1628067634643,
2021-08-04 11:02:36 AM,-,1628067634646,
2021-08-04 11:02:36 AM,-,1628067634650,
2021-08-04 11:02:36 AM,-,1628067634653,
2021-08-04 11:02:36 AM,-,1628067634656,
2021-08-04 11:02:36 AM,-,1628067634660,
2021-08-04 11:02:36 AM,-,1628067634663,
2021-08-04 11:02:36 AM,-,1628067634666,
2021-08-04 11:02:36 AM,-,1628067634670,
2021-08-04 11:02:36 AM,-,1628067634673,
2021-08-04 11:02:36 AM,-,1628067634676,
2021-08-04 11:02:36 AM,-,1628067634680,
2021-08-04 11:02:36 AM,-,1628067634683,
2021-08-04 11:02:36 AM,-,1628067634686,
2021-08-04 11:02:36 AM,-,1628067634690,
2021-08-04 11:02:36 AM,-,1628067634693,
2021-08-04 11:02:36 AM,-,1628067634696,
2021-08-04 11:02:36 AM,-,1628067634700,
2021-08-04 11:02:36 AM,-,1628067634703,
2021-08-04 11:02:36 AM,-,1628067634706,
2021-08-04 11:02:36 AM,-,1628067634710,
2021-08-04 11:02:36 AM,-,1628067634713,
2021-08-04 11:02:36 AM,-,1628067634716,
2021-08-04 11:02:36 AM,-,1628067634720,
2021-08-04 11:02:36 AM,-,1628067634723,
2021-08-04 11:02:36 AM,-,1628067634726,
2021-08-04 11:02:36 AM,-,1628067634730,
2021-08-04 11:02:36 AM,-,1628067634733,
2021-08-04 11:02:36 AM,-,1628067634736,
2021-08-04 11:02:36 AM,-,1628067634740,
2021-08-04 11:02:36 AM,-,1628067634743,
2021-08-04 11:02:36 AM,-,1628067634746,
2021-08-04 11:02:36 AM,-,1628067634750,
2021-08-04 11:02:36 AM,-,1628067634753,
2021-08-04 11:02:36 AM,-,1628067634756,
2021-08-04 11:02:36 AM,-,1628067634760,
2021-08-04 11:02:36 AM,-,1628067634763,
2021-08-04 11:02:36 AM,-,1628067634766,
2021-08-04 11:02:36 AM,-,1628067634770,
2021-08-04 11:02:36 AM,-,1628067634773,
2021-08-04 11:02:36 AM,-,1628067634776,
2021-08-04 11:02:36 AM,-,1628067634780,
2021-08-04 11:02:36 AM,-,1628067634783,
2021-08-04 11:02:36 AM,-,1628067634786,
2021-08-04 11:02:36 AM,-,1628067634790,
2021-08-04 11:02:36 AM,-,1628067634793,
2021-08-04 11:02:36 AM,-,1628067634796,
2021-08-04 11:02:36 AM,-,1628067634800,
2021-08-04 11:02:36 AM,-,1628067634803,
2021-08-04 11:02:36 AM,-,1628067634806,
2021-08-04 11:02:36 AM,-,1628067634810,
2021-08-04 11:02:36 AM,-,1628067634813,
2021-08-04 11:02:36 AM,-,1628067634816,
2021-08-04 11:02:36 AM,-,1628067634820,
2021-08-04 11:02:36 AM,-,1628067634823,
2021-08-04 11:02:36 AM,-,1628067634826,
2021-08-04 11:02:36 AM,-,1628067634830,
2021-08-04 11:02:36 AM,-,1628067634833,
2021-08-04 11:02:36 AM,-,1628067634836,
2021-08-04 11:02:36 AM,-,1628067634840,
2021-08-04 11:02:36 AM,-,1628067634843,
2021-08-04 11:02:36 AM,-,1628067634846,
2021-08-04 11:02:36 AM,-,1628067634850,
2021-08-04 11:02:36 AM,-,1628067634853,
2021-08-04 11:02:36 AM,-,1628067634856,
2021-08-04 11:02:36 AM,-,1628067634860,
2021-08-04 11:02:36 AM,-,1628067634863,
2021-08-04 11:02:36 AM,-,1628067634866,
2021-08-04 11:02:36 AM,-,1628067634870,
2021-08-04 11:02:36 AM,-,1628067634873,
2021-08-04 11:02:36 AM,-,1628067634876,
2021-08-04 11:02:36 AM,-,1628067634880,
2021-08-04 11:02:36 AM,-,1628067634883,
2021-08-04 11:02:36 AM,-,1628067634886,
2021-08-04 11:02:36 AM,-,1628067634890,
2021-08-04 11:02:36 AM,-,1628067634893,
2021-08-04 11:02:36 AM,-,1628067634896,
2021-08-04 11:02:36 AM,-,1628067634900,
2021-08-04 11:02:36 AM,-,1628067634903,
2021-08-04 11:02:36 AM,-,1628067634906,
2021-08-04 11:02:36 AM,-,1628067634910,
2021-08-04 11:02:36 AM,-,1628067634913,
2021-08-04 11:02:36 AM,-,1628067634916,
2021-08-04 11:02:36 AM,-,1628067634920,
2021-08-04 11:02:36 AM,-,1628067634923,
2021-08-04 11:02:36 AM,-,1628067634926,
2021-08-04 11:02:36 AM,-,1628067634930,
2021-08-04 11:02:36 AM,-,1628067634933,
2021-08-04 11:02:36 AM,-,1628067634936,
2021-08-04 11:02:36 AM,-,1628067634940,
2021-08-04 11:02:36 AM,-,1628067634943,
2021-08-04 11:02:36 AM,-,1628067634946,
2021-08-04 11:02:36 AM,-,1628067634950,
2021-08-04 11:02:36 AM,-,1628067634953,
2021-08-04 11:02:36 AM,-,1628067634956,
2021-08-04 11:02:36 AM,-,1628067634960,
2021-08-04 11:02:36 AM,-,1628067634963,
2021-08-04 11:02:36 AM,-,1628067634966,
2021-08-04 11:02:36 AM,-,1628067634970,
2021-08-04 11:02:36 AM,-,1628067634973,
2021-08-04 11:02:36 AM,-,1628067634976,
2021-08-04 11:02:36 AM,-,1628067634980,
2021-08-04 11:02:36 AM,-,1628067634983,
2021-08-04 11:02:36 AM,-,1628067634986,
2021-08-04 11:02:36 AM,-,1628067634990,
2021-08-04 11:02:36 AM,-,1628067634993,
2021-08-04 11:02:36 AM,-,1628067634996,
2021-08-04 11:02:37 AM,-,1628067635000,
2021-08-04 11:02:37 AM,-,1628067635003,
2021-08-04 11:02:37 AM,-,1628067635006,
2021-08-04 11:02:37 AM,-,1628067635010,
2021-08-04 11:02:37 AM,-,1628067635013,
2021-08-04 11:02:37 AM,-,1628067635016,
2021-08-04 11:02:37 AM,-,1628067635020,
2021-08-04 11:02:37 AM,-,1628067635023,
2021-08-04 11:02:37 AM,-,1628067635026,
2021-08-04 11:02:37 AM,-,1628067635030,
2021-08-04 11:02:37 AM,-,1628067635033,
2021-08-04 11:02:37 AM,-,1628067635036,
2021-08-04 11:02:37 AM,-,1628067635040,
2021-08-04 11:02:37 AM,-,1628067635043,
2021-08-04 11:02:37 AM,-,1628067635046,
2021-08-04 11:02:37 AM,-,1628067635050,
2021-08-04 11:02:37 AM,-,1628067635053,
2021-08-04 11:02:37 AM,-,1628067635056,
2021-08-04 11:02:37 AM,-,1628067635060,
2021-08-04 11:02:37 AM,-,1628067635063,
2021-08-04 11:02:37 AM,-,1628067635066,
2021-08-04 11:02:37 AM,-,1628067635070,
2021-08-04 11:02:37 AM,-,1628067635073,
2021-08-04 11:02:37 AM,-,1628067635076,
2021-08-04 11:02:37 AM,-,1628067635080,
2021-08-04 11:02:37 AM,-,1628067635083,
2021-08-04 11:02:37 AM,-,1628067635086,
2021-08-04 11:02:37 AM,-,1628067635090,
2021-08-04 11:02:37 AM,-,1628067635093,
2021-08-04 11:02:37 AM,-,1628067635096,
2021-08-04 11:02:37 AM,-,1628067635100,
2021-08-04 11:02:37 AM,-,1628067635103,
2021-08-04 11:02:37 AM,-,1628067635106,
2021-08-04 11:02:37 AM,-,1628067635110,
2021-08-04 11:02:37 AM,-,1628067635113,
2021-08-04 11:02:37 AM,-,1628067635116,
2021-08-04 11:02:37 AM,-,1628067635120,
2021-08-04 11:02:37 AM,-,1628067635123,
2021-08-04 11:02:37 AM,-,1628067635126,
2021-08-04 11:02:37 AM,-,1628067635130,
2021-08-04 11:02:37 AM,-,1628067635133,
2021-08-04 11:02:37 AM,-,1628067635136,
2021-08-04 11:02:37 AM,-,1628067635140,
2021-08-04 11:02:37 AM,-,1628067635143,
2021-08-04 11:02:37 AM,-,1628067635146,
2021-08-04 11:02:37 AM,-,1628067635150,
2021-08-04 11:02:37 AM,-,1628067635153,
2021-08-04 11:02:37 AM,-,1628067635156,
2021-08-04 11:02:37 AM,-,1628067635160,
2021-08-04 11:02:37 AM,-,1628067635163,
2021-08-04 11:02:37 AM,-,1628067635166,
2021-08-04 11:02:37 AM,-,1628067635170,
2021-08-04 11:02:37 AM,-,1628067635173,
2021-08-04 11:02:37 AM,-,1628067635176,
2021-08-04 11:02:37 AM,-,1628067635180,
2021-08-04 11:02:37 AM,-,1628067635183,
2021-08-04 11:02:37 AM,-,1628067635186,
2021-08-04 11:02:37 AM,-,1628067635190,
2021-08-04 11:02:37 AM,-,1628067635193,
2021-08-04 11:02:37 AM,-,1628067635196,
2021-08-04 11:02:37 AM,-,1628067635200,
2021-08-04 11:02:37 AM,-,1628067635203,
2021-08-04 11:02:37 AM,-,1628067635206,
2021-08-04 11:02:37 AM,-,1628067635210,
2021-08-04 11:02:37 AM,-,1628067635213,
2021-08-04 11:02:37 AM,-,1628067635216,
2021-08-04 11:02:37 AM,-,1628067635220,
2021-08-04 11:02:37 AM,-,1628067635223,
2021-08-04 11:02:37 AM,-,1628067635226,
2021-08-04 11:02:37 AM,-,1628067635230,
2021-08-04 11:02:37 AM,-,1628067635233,
2021-08-04 11:02:37 AM,-,1628067635236,
2021-08-04 11:02:37 AM,-,1628067635240,
2021-08-04 11:02:37 AM,-,1628067635243,
2021-08-04 11:02:37 AM,-,1628067635246,
2021-08-04 11:02:37 AM,-,1628067635250,
2021-08-04 11:02:37 AM,-,1628067635253,
2021-08-04 11:02:37 AM,-,1628067635256,
2021-08-04 11:02:37 AM,-,1628067635260,
2021-08-04 11:02:37 AM,-,1628067635263,
2021-08-04 11:02:37 AM,-,1628067635266,
2021-08-04 11:02:37 AM,-,1628067635270,
2021-08-04 11:02:37 AM,-,1628067635273,
2021-08-04 11:02:37 AM,-,1628067635276,
2021-08-04 11:02:37 AM,-,1628067635280,
2021-08-04 11:02:37 AM,-,1628067635283,
2021-08-04 11:02:37 AM,-,1628067635286,
2021-08-04 11:02:37 AM,-,1628067635290,
2021-08-04 11:02:37 AM,-,1628067635293,
2021-08-04 11:02:37 AM,-,1628067635296,
2021-08-04 11:02:37 AM,-,1628067635300,
2021-08-04 11:02:37 AM,-,1628067635303,
2021-08-04 11:02:37 AM,-,1628067635306,
2021-08-04 11:02:37 AM,-,1628067635310,
2021-08-04 11:02:37 AM,-,1628067635313,
2021-08-04 11:02:37 AM,-,1628067635316,
2021-08-04 11:02:37 AM,-,1628067635320,
2021-08-04 11:02:37 AM,-,1628067635323,
2021-08-04 11:02:37 AM,-,1628067635326,
2021-08-04 11:02:37 AM,-,1628067635330,
2021-08-04 11:02:37 AM,-,1628067635333,
2021-08-04 11:02:37 AM,-,1628067635336,
2021-08-04 11:02:37 AM,-,1628067635340,
2021-08-04 11:02:37 AM,-,1628067635343,
2021-08-04 11:02:37 AM,-,1628067635346,
2021-08-04 11:02:37 AM,-,1628067635350,
2021-08-04 11:02:37 AM,-,1628067635353,
2021-08-04 11:02:37 AM,-,1628067635356,
2021-08-04 11:02:37 AM,-,1628067635360,
2021-08-04 11:02:37 AM,-,1628067635363,
2021-08-04 11:02:37 AM,-,1628067635366,
2021-08-04 11:02:37 AM,-,1628067635370,
2021-08-04 11:02:37 AM,-,1628067635373,
2021-08-04 11:02:37 AM,-,1628067635376,
2021-08-04 11:02:37 AM,-,1628067635380,
2021-08-04 11:02:37 AM,-,1628067635383,
2021-08-04 11:02:37 AM,-,1628067635386,
2021-08-04 11:02:37 AM,-,1628067635390,
2021-08-04 11:02:37 AM,-,1628067635393,
2021-08-04 11:02:37 AM,-,1628067635396,
2021-08-04 11:02:37 AM,-,1628067635400,
2021-08-04 11:02:37 AM,-,1628067635403,
2021-08-04 11:02:37 AM,-,1628067635406,
2021-08-04 11:02:37 AM,-,1628067635410,
2021-08-04 11:02:37 AM,-,1628067635413,
2021-08-04 11:02:37 AM,-,1628067635416,
2021-08-04 11:02:37 AM,-,1628067635420,
2021-08-04 11:02:37 AM,-,1628067635423,
2021-08-04 11:02:37 AM,-,1628067635426,
2021-08-04 11:02:37 AM,-,1628067635430,
2021-08-04 11:02:37 AM,-,1628067635433,
2021-08-04 11:02:37 AM,-,1628067635436,
2021-08-04 11:02:37 AM,-,1628067635440,
2021-08-04 11:02:37 AM,-,1628067635443,
2021-08-04 11:02:37 AM,-,1628067635446,
2021-08-04 11:02:37 AM,-,1628067635450,
2021-08-04 11:02:37 AM,-,1628067635453,
2021-08-04 11:02:37 AM,-,1628067635456,
2021-08-04 11:02:37 AM,-,1628067635460,
2021-08-04 11:02:37 AM,-,1628067635463,
2021-08-04 11:02:37 AM,-,1628067635466,
2021-08-04 11:02:37 AM,-,1628067635470,
2021-08-04 11:02:37 AM,-,1628067635473,
2021-08-04 11:02:37 AM,-,1628067635476,
2021-08-04 11:02:37 AM,-,1628067635480,
2021-08-04 11:02:37 AM,-,1628067635483,
2021-08-04 11:02:37 AM,-,1628067635486,
2021-08-04 11:02:37 AM,-,1628067635490,
2021-08-04 11:02:37 AM,-,1628067635493,
2021-08-04 11:02:37 AM,-,1628067635496,
2021-08-04 11:02:37 AM,-,1628067635500,
2021-08-04 11:02:37 AM,-,1628067635503,
2021-08-04 11:02:37 AM,-,1628067635506,
2021-08-04 11:02:37 AM,-,1628067635510,
2021-08-04 11:02:37 AM,-,1628067635513,
2021-08-04 11:02:37 AM,-,1628067635516,
2021-08-04 11:02:37 AM,-,1628067635520,
2021-08-04 11:02:37 AM,-,1628067635523,
2021-08-04 11:02:37 AM,-,1628067635526,
2021-08-04 11:02:37 AM,-,1628067635530,
2021-08-04 11:02:37 AM,-,1628067635533,
2021-08-04 11:02:37 AM,-,1628067635536,
2021-08-04 11:02:37 AM,-,1628067635540,
2021-08-04 11:02:37 AM,-,1628067635543,
2021-08-04 11:02:37 AM,-,1628067635546,
2021-08-04 11:02:37 AM,-,1628067635550,
2021-08-04 11:02:37 AM,-,1628067635553,
2021-08-04 11:02:37 AM,-,1628067635556,
2021-08-04 11:02:37 AM,-,1628067635560,
2021-08-04 11:02:37 AM,-,1628067635563,
2021-08-04 11:02:37 AM,-,1628067635566,
2021-08-04 11:02:37 AM,-,1628067635570,
2021-08-04 11:02:37 AM,-,1628067635573,
2021-08-04 11:02:37 AM,-,1628067635576,
2021-08-04 11:02:37 AM,-,1628067635580,
2021-08-04 11:02:37 AM,-,1628067635583,
2021-08-04 11:02:37 AM,-,1628067635586,
2021-08-04 11:02:37 AM,-,1628067635590,
2021-08-04 11:02:37 AM,-,1628067635593,
2021-08-04 11:02:37 AM,-,1628067635596,
2021-08-04 11:02:37 AM,-,1628067635600,
2021-08-04 11:02:37 AM,-,1628067635603,
2021-08-04 11:02:37 AM,-,1628067635606,
2021-08-04 11:02:37 AM,-,1628067635610,
2021-08-04 11:02:37 AM,-,1628067635613,
2021-08-04 11:02:37 AM,-,1628067635616,
2021-08-04 11:02:37 AM,-,1628067635620,
2021-08-04 11:02:37 AM,-,1628067635623,
2021-08-04 11:02:37 AM,-,1628067635626,
2021-08-04 11:02:37 AM,-,1628067635630,
2021-08-04 11:02:37 AM,-,1628067635633,
2021-08-04 11:02:37 AM,-,1628067635636,
2021-08-04 11:02:37 AM,-,1628067635640,
2021-08-04 11:02:37 AM,-,1628067635643,
2021-08-04 11:02:37 AM,-,1628067635646,
2021-08-04 11:02:37 AM,-,1628067635650,
2021-08-04 11:02:37 AM,-,1628067635653,
2021-08-04 11:02:37 AM,-,1628067635656,
2021-08-04 11:02:37 AM,-,1628067635660,
2021-08-04 11:02:37 AM,-,1628067635663,
2021-08-04 11:02:37 AM,-,1628067635666,
2021-08-04 11:02:37 AM,-,1628067635670,
2021-08-04 11:02:37 AM,-,1628067635673,
2021-08-04 11:02:37 AM,-,1628067635676,
2021-08-04 11:02:37 AM,-,1628067635680,
2021-08-04 11:02:37 AM,-,1628067635683,
2021-08-04 11:02:37 AM,-,1628067635686,
2021-08-04 11:02:37 AM,-,1628067635690,
2021-08-04 11:02:37 AM,-,1628067635693,
2021-08-04 11:02:37 AM,-,1628067635696,
2021-08-04 11:02:37 AM,-,1628067635700,
2021-08-04 11:02:37 AM,-,1628067635703,
2021-08-04 11:02:37 AM,-,1628067635706,
2021-08-04 11:02:37 AM,-,1628067635710,
2021-08-04 11:02:37 AM,-,1628067635713,
2021-08-04 11:02:37 AM,-,1628067635716,
2021-08-04 11:02:37 AM,-,1628067635720,
2021-08-04 11:02:37 AM,-,1628067635723,
2021-08-04 11:02:37 AM,-,1628067635726,
2021-08-04 11:02:37 AM,-,1628067635730,
2021-08-04 11:02:37 AM,-,1628067635733,
2021-08-04 11:02:37 AM,-,1628067635736,
2021-08-04 11:02:37 AM,-,1628067635740,
2021-08-04 11:02:37 AM,-,1628067635743,
2021-08-04 11:02:37 AM,-,1628067635746,
2021-08-04 11:02:37 AM,-,1628067635750,
2021-08-04 11:02:37 AM,-,1628067635753,
2021-08-04 11:02:37 AM,-,1628067635756,
2021-08-04 11:02:37 AM,-,1628067635760,
2021-08-04 11:02:37 AM,-,1628067635763,
2021-08-04 11:02:37 AM,-,1628067635766,
2021-08-04 11:02:37 AM,-,1628067635770,
2021-08-04 11:02:37 AM,-,1628067635773,
2021-08-04 11:02:37 AM,-,1628067635776,
2021-08-04 11:02:37 AM,-,1628067635780,
2021-08-04 11:02:37 AM,-,1628067635783,
2021-08-04 11:02:37 AM,-,1628067635786,
2021-08-04 11:02:37 AM,-,1628067635790,
2021-08-04 11:02:37 AM,-,1628067635793,
2021-08-04 11:02:37 AM,-,1628067635796,
2021-08-04 11:02:37 AM,-,1628067635800,
2021-08-04 11:02:37 AM,-,1628067635803,
2021-08-04 11:02:37 AM,-,1628067635806,
2021-08-04 11:02:37 AM,-,1628067635810,
2021-08-04 11:02:37 AM,-,1628067635813,
2021-08-04 11:02:37 AM,-,1628067635816,
2021-08-04 11:02:37 AM,-,1628067635820,
2021-08-04 11:02:37 AM,-,1628067635823,
2021-08-04 11:02:37 AM,-,1628067635826,
2021-08-04 11:02:37 AM,-,1628067635830,
2021-08-04 11:02:37 AM,-,1628067635833,
2021-08-04 11:02:37 AM,-,1628067635836,
2021-08-04 11:02:37 AM,-,1628067635840,
2021-08-04 11:02:37 AM,-,1628067635843,
2021-08-04 11:02:37 AM,-,1628067635846,
2021-08-04 11:02:37 AM,-,1628067635850,
2021-08-04 11:02:37 AM,-,1628067635853,
2021-08-04 11:02:37 AM,-,1628067635856,
2021-08-04 11:02:37 AM,-,1628067635860,
2021-08-04 11:02:37 AM,-,1628067635863,
2021-08-04 11:02:37 AM,-,1628067635866,
2021-08-04 11:02:37 AM,-,1628067635870,
2021-08-04 11:02:37 AM,-,1628067635873,
2021-08-04 11:02:37 AM,-,1628067635876,
2021-08-04 11:02:37 AM,-,1628067635880,
2021-08-04 11:02:37 AM,-,1628067635883,
2021-08-04 11:02:37 AM,-,1628067635886,
2021-08-04 11:02:37 AM,-,1628067635890,
2021-08-04 11:02:37 AM,-,1628067635893,
2021-08-04 11:02:37 AM,-,1628067635896,
2021-08-04 11:02:37 AM,-,1628067635900,
2021-08-04 11:02:37 AM,-,1628067635903,
2021-08-04 11:02:37 AM,-,1628067635906,
2021-08-04 11:02:37 AM,-,1628067635910,
2021-08-04 11:02:37 AM,-,1628067635913,
2021-08-04 11:02:37 AM,-,1628067635916,
2021-08-04 11:02:37 AM,-,1628067635920,
2021-08-04 11:02:37 AM,-,1628067635923,
2021-08-04 11:02:37 AM,-,1628067635926,
2021-08-04 11:02:37 AM,-,1628067635930,
2021-08-04 11:02:37 AM,-,1628067635933,
2021-08-04 11:02:37 AM,-,1628067635936,
2021-08-04 11:02:37 AM,-,1628067635940,
2021-08-04 11:02:37 AM,-,1628067635943,
2021-08-04 11:02:37 AM,-,1628067635946,
2021-08-04 11:02:37 AM,-,1628067635950,
2021-08-04 11:02:37 AM,-,1628067635953,
2021-08-04 11:02:37 AM,-,1628067635956,
2021-08-04 11:02:37 AM,-,1628067635960,
2021-08-04 11:02:37 AM,-,1628067635963,
2021-08-04 11:02:37 AM,-,1628067635966,
2021-08-04 11:02:37 AM,-,1628067635970,
2021-08-04 11:02:37 AM,-,1628067635973,
2021-08-04 11:02:37 AM,-,1628067635976,
2021-08-04 11:02:37 AM,-,1628067635980,
2021-08-04 11:02:37 AM,-,1628067635983,
2021-08-04 11:02:37 AM,-,1628067635986,
2021-08-04 11:02:37 AM,-,1628067635990,
2021-08-04 11:02:37 AM,-,1628067635993,
2021-08-04 11:02:37 AM,-,1628067635996,
2021-08-04 11:02:38 AM,-,1628067636000,
2021-08-04 11:02:38 AM,-,1628067636003,
2021-08-04 11:02:38 AM,-,1628067636006,
2021-08-04 11:02:38 AM,-,1628067636010,
2021-08-04 11:02:38 AM,-,1628067636013,
2021-08-04 11:02:38 AM,-,1628067636016,
2021-08-04 11:02:38 AM,-,1628067636020,
2021-08-04 11:02:38 AM,-,1628067636023,
2021-08-04 11:02:38 AM,-,1628067636026,
2021-08-04 11:02:38 AM,-,1628067636030,
2021-08-04 11:02:38 AM,-,1628067636033,
2021-08-04 11:02:38 AM,-,1628067636036,
2021-08-04 11:02:38 AM,-,1628067636040,
2021-08-04 11:02:38 AM,-,1628067636043,
2021-08-04 11:02:38 AM,-,1628067636046,
2021-08-04 11:02:38 AM,-,1628067636050,
2021-08-04 11:02:38 AM,-,1628067636053,
2021-08-04 11:02:38 AM,-,1628067636056,
2021-08-04 11:02:38 AM,-,1628067636060,
2021-08-04 11:02:38 AM,-,1628067636063,
2021-08-04 11:02:38 AM,-,1628067636066,
2021-08-04 11:02:38 AM,-,1628067636070,
2021-08-04 11:02:38 AM,-,1628067636073,
2021-08-04 11:02:38 AM,-,1628067636076,
2021-08-04 11:02:38 AM,-,1628067636080,
2021-08-04 11:02:38 AM,-,1628067636083,
2021-08-04 11:02:38 AM,-,1628067636086,
2021-08-04 11:02:38 AM,-,1628067636090,
2021-08-04 11:02:38 AM,-,1628067636093,
2021-08-04 11:02:38 AM,-,1628067636096,
2021-08-04 11:02:38 AM,-,1628067636100,
2021-08-04 11:02:38 AM,-,1628067636103,
2021-08-04 11:02:38 AM,-,1628067636106,
2021-08-04 11:02:38 AM,-,1628067636110,
2021-08-04 11:02:38 AM,-,1628067636113,
2021-08-04 11:02:38 AM,-,1628067636116,
2021-08-04 11:02:38 AM,-,1628067636120,
2021-08-04 11:02:38 AM,-,1628067636123,
2021-08-04 11:02:38 AM,-,1628067636126,
2021-08-04 11:02:38 AM,-,1628067636130,
2021-08-04 11:02:38 AM,-,1628067636133,
2021-08-04 11:02:38 AM,-,1628067636136,
2021-08-04 11:02:38 AM,-,1628067636140,
2021-08-04 11:02:38 AM,-,1628067636143,
2021-08-04 11:02:38 AM,-,1628067636146,
2021-08-04 11:02:38 AM,-,1628067636150,
2021-08-04 11:02:38 AM,-,1628067636153,
2021-08-04 11:02:38 AM,-,1628067636156,
2021-08-04 11:02:38 AM,-,1628067636160,
2021-08-04 11:02:38 AM,-,1628067636163,
2021-08-04 11:02:38 AM,-,1628067636166,
2021-08-04 11:02:38 AM,-,1628067636170,
2021-08-04 11:02:38 AM,-,1628067636173,
2021-08-04 11:02:38 AM,-,1628067636176,
2021-08-04 11:02:38 AM,-,1628067636180,
2021-08-04 11:02:38 AM,-,1628067636183,
2021-08-04 11:02:38 AM,-,1628067636186,
2021-08-04 11:02:38 AM,-,1628067636190,
2021-08-04 11:02:38 AM,-,1628067636193,
2021-08-04 11:02:38 AM,-,1628067636196,
2021-08-04 11:02:38 AM,-,1628067636200,
2021-08-04 11:02:38 AM,-,1628067636203,
2021-08-04 11:02:38 AM,-,1628067636206,
2021-08-04 11:02:38 AM,-,1628067636210,
2021-08-04 11:02:38 AM,-,1628067636213,
2021-08-04 11:02:38 AM,-,1628067636216,
2021-08-04 11:02:38 AM,-,1628067636220,
2021-08-04 11:02:38 AM,-,1628067636223,
2021-08-04 11:02:38 AM,-,1628067636226,
2021-08-04 11:02:38 AM,-,1628067636230,
2021-08-04 11:02:38 AM,-,1628067636233,
2021-08-04 11:02:38 AM,-,1628067636236,
2021-08-04 11:02:38 AM,-,1628067636240,
2021-08-04 11:02:38 AM,-,1628067636243,
2021-08-04 11:02:38 AM,-,1628067636246,
2021-08-04 11:02:38 AM,-,1628067636250,
2021-08-04 11:02:38 AM,-,1628067636253,
2021-08-04 11:02:38 AM,-,1628067636256,
2021-08-04 11:02:38 AM,-,1628067636260,
2021-08-04 11:02:38 AM,-,1628067636263,
2021-08-04 11:02:38 AM,-,1628067636266,
2021-08-04 11:02:38 AM,-,1628067636270,
2021-08-04 11:02:38 AM,-,1628067636273,
2021-08-04 11:02:38 AM,-,1628067636276,
2021-08-04 11:02:38 AM,-,1628067636280,
2021-08-04 11:02:38 AM,-,1628067636283,
2021-08-04 11:02:38 AM,-,1628067636286,
2021-08-04 11:02:38 AM,-,1628067636290,
2021-08-04 11:02:38 AM,-,1628067636293,
2021-08-04 11:02:38 AM,-,1628067636296,
2021-08-04 11:02:38 AM,-,1628067636300,
2021-08-04 11:02:38 AM,-,1628067636303,
2021-08-04 11:02:38 AM,-,1628067636306,
2021-08-04 11:02:38 AM,-,1628067636310,
2021-08-04 11:02:38 AM,-,1628067636313,
2021-08-04 11:02:38 AM,-,1628067636316,
2021-08-04 11:02:38 AM,-,1628067636320,
2021-08-04 11:02:38 AM,-,1628067636323,
2021-08-04 11:02:38 AM,-,1628067636326,
2021-08-04 11:02:38 AM,-,1628067636330,
2021-08-04 11:02:38 AM,-,1628067636333,
2021-08-04 11:02:38 AM,-,1628067636336,
2021-08-04 11:02:38 AM,-,1628067636340,
2021-08-04 11:02:38 AM,-,1628067636343,
2021-08-04 11:02:38 AM,-,1628067636346,
2021-08-04 11:02:38 AM,-,1628067636350,
2021-08-04 11:02:38 AM,-,1628067636353,
2021-08-04 11:02:38 AM,-,1628067636356,
2021-08-04 11:02:38 AM,-,1628067636360,
2021-08-04 11:02:38 AM,-,1628067636363,
2021-08-04 11:02:38 AM,-,1628067636366,
2021-08-04 11:02:38 AM,-,1628067636370,
2021-08-04 11:02:38 AM,-,1628067636373,
2021-08-04 11:02:38 AM,-,1628067636376,
2021-08-04 11:02:38 AM,-,1628067636380,
2021-08-04 11:02:38 AM,-,1628067636383,
2021-08-04 11:02:38 AM,-,1628067636386,
2021-08-04 11:02:38 AM,-,1628067636390,
2021-08-04 11:02:38 AM,-,1628067636393,
2021-08-04 11:02:38 AM,-,1628067636396,
2021-08-04 11:02:38 AM,-,1628067636400,
2021-08-04 11:02:38 AM,-,1628067636403,
2021-08-04 11:02:38 AM,-,1628067636406,
2021-08-04 11:02:38 AM,-,1628067636410,
2021-08-04 11:02:38 AM,-,1628067636413,
2021-08-04 11:02:38 AM,-,1628067636416,
2021-08-04 11:02:38 AM,-,1628067636420,
2021-08-04 11:02:38 AM,-,1628067636423,
2021-08-04 11:02:38 AM,-,1628067636426,
2021-08-04 11:02:38 AM,-,1628067636430,
2021-08-04 11:02:38 AM,-,1628067636433,
2021-08-04 11:02:38 AM,-,1628067636436,
2021-08-04 11:02:38 AM,-,1628067636440,
2021-08-04 11:02:38 AM,-,1628067636443,
2021-08-04 11:02:38 AM,-,1628067636446,
2021-08-04 11:02:38 AM,-,1628067636450,
2021-08-04 11:02:38 AM,-,1628067636453,
2021-08-04 11:02:38 AM,-,1628067636456,
2021-08-04 11:02:38 AM,-,1628067636460,
2021-08-04 11:02:38 AM,-,1628067636463,
2021-08-04 11:02:38 AM,-,1628067636466,
2021-08-04 11:02:38 AM,-,1628067636470,
2021-08-04 11:02:38 AM,-,1628067636473,
2021-08-04 11:02:38 AM,-,1628067636476,
2021-08-04 11:02:38 AM,-,1628067636480,
2021-08-04 11:02:38 AM,-,1628067636483,
2021-08-04 11:02:38 AM,-,1628067636486,
2021-08-04 11:02:38 AM,-,1628067636490,
2021-08-04 11:02:38 AM,-,1628067636493,
2021-08-04 11:02:38 AM,-,1628067636496,
2021-08-04 11:02:38 AM,-,1628067636500,
2021-08-04 11:02:38 AM,-,1628067636503,
2021-08-04 11:02:38 AM,-,1628067636506,
2021-08-04 11:02:38 AM,-,1628067636510,
2021-08-04 11:02:38 AM,-,1628067636513,
2021-08-04 11:02:38 AM,-,1628067636516,
2021-08-04 11:02:38 AM,-,1628067636520,
2021-08-04 11:02:38 AM,-,1628067636523,
2021-08-04 11:02:38 AM,-,1628067636526,
2021-08-04 11:02:38 AM,-,1628067636530,
2021-08-04 11:02:38 AM,-,1628067636533,
2021-08-04 11:02:38 AM,-,1628067636536,
2021-08-04 11:02:38 AM,-,1628067636540,
2021-08-04 11:02:38 AM,-,1628067636543,
2021-08-04 11:02:38 AM,-,1628067636546,
2021-08-04 11:02:38 AM,-,1628067636550,
2021-08-04 11:02:38 AM,-,1628067636553,
2021-08-04 11:02:38 AM,-,1628067636556,
2021-08-04 11:02:38 AM,-,1628067636560,
2021-08-04 11:02:38 AM,-,1628067636563,
2021-08-04 11:02:38 AM,-,1628067636566,
2021-08-04 11:02:38 AM,-,1628067636570,
2021-08-04 11:02:38 AM,-,1628067636573,
2021-08-04 11:02:38 AM,-,1628067636576,
2021-08-04 11:02:38 AM,-,1628067636580,
2021-08-04 11:02:38 AM,-,1628067636583,
2021-08-04 11:02:38 AM,-,1628067636586,
2021-08-04 11:02:38 AM,-,1628067636590,
2021-08-04 11:02:38 AM,-,1628067636593,
2021-08-04 11:02:38 AM,-,1628067636596,
2021-08-04 11:02:38 AM,-,1628067636600,
2021-08-04 11:02:38 AM,-,1628067636603,
2021-08-04 11:02:38 AM,-,1628067636606,
2021-08-04 11:02:38 AM,-,1628067636610,
2021-08-04 11:02:38 AM,-,1628067636613,
2021-08-04 11:02:38 AM,-,1628067636616,
2021-08-04 11:02:38 AM,-,1628067636620,
2021-08-04 11:02:38 AM,-,1628067636623,
2021-08-04 11:02:38 AM,-,1628067636626,
2021-08-04 11:02:38 AM,-,1628067636630,
2021-08-04 11:02:38 AM,-,1628067636633,
2021-08-04 11:02:38 AM,-,1628067636636,
2021-08-04 11:02:38 AM,-,1628067636640,
2021-08-04 11:02:38 AM,-,1628067636643,
2021-08-04 11:02:38 AM,-,1628067636646,
2021-08-04 11:02:38 AM,-,1628067636650,
2021-08-04 11:02:38 AM,-,1628067636653,
2021-08-04 11:02:38 AM,-,1628067636656,
2021-08-04 11:02:38 AM,-,1628067636660,
2021-08-04 11:02:38 AM,-,1628067636663,
2021-08-04 11:02:38 AM,-,1628067636666,
2021-08-04 11:02:38 AM,-,1628067636670,
2021-08-04 11:02:38 AM,-,1628067636673,
2021-08-04 11:02:38 AM,-,1628067636676,
2021-08-04 11:02:38 AM,-,1628067636680,
2021-08-04 11:02:38 AM,-,1628067636683,
2021-08-04 11:02:38 AM,-,1628067636686,
2021-08-04 11:02:38 AM,-,1628067636690,
2021-08-04 11:02:38 AM,-,1628067636693,
2021-08-04 11:02:38 AM,-,1628067636696,
2021-08-04 11:02:38 AM,-,1628067636700,
2021-08-04 11:02:38 AM,-,1628067636703,
2021-08-04 11:02:38 AM,-,1628067636706,
2021-08-04 11:02:38 AM,-,1628067636710,
2021-08-04 11:02:38 AM,-,1628067636713,
2021-08-04 11:02:38 AM,-,1628067636716,
2021-08-04 11:02:38 AM,-,1628067636720,
2021-08-04 11:02:38 AM,-,1628067636723,
2021-08-04 11:02:38 AM,-,1628067636726,
2021-08-04 11:02:38 AM,-,1628067636730,
2021-08-04 11:02:38 AM,-,1628067636733,
2021-08-04 11:02:38 AM,-,1628067636736,
2021-08-04 11:02:38 AM,-,1628067636740,
2021-08-04 11:02:38 AM,-,1628067636743,
2021-08-04 11:02:38 AM,-,1628067636746,
2021-08-04 11:02:38 AM,-,1628067636750,
2021-08-04 11:02:38 AM,-,1628067636753,
2021-08-04 11:02:38 AM,-,1628067636756,
2021-08-04 11:02:38 AM,-,1628067636760,
2021-08-04 11:02:38 AM,-,1628067636763,
2021-08-04 11:02:38 AM,-,1628067636766,
2021-08-04 11:02:38 AM,-,1628067636770,
2021-08-04 11:02:38 AM,-,1628067636773,
2021-08-04 11:02:38 AM,-,1628067636776,
2021-08-04 11:02:38 AM,-,1628067636780,
2021-08-04 11:02:38 AM,-,1628067636783,
2021-08-04 11:02:38 AM,-,1628067636786,
2021-08-04 11:02:38 AM,-,1628067636790,
2021-08-04 11:02:38 AM,-,1628067636793,
2021-08-04 11:02:38 AM,-,1628067636796,
2021-08-04 11:02:38 AM,-,1628067636800,
2021-08-04 11:02:38 AM,-,1628067636803,
2021-08-04 11:02:38 AM,-,1628067636806,
2021-08-04 11:02:38 AM,-,1628067636810,
2021-08-04 11:02:38 AM,-,1628067636813,
2021-08-04 11:02:38 AM,-,1628067636816,
2021-08-04 11:02:38 AM,-,1628067636820,
2021-08-04 11:02:38 AM,-,1628067636823,
2021-08-04 11:02:38 AM,-,1628067636826,
2021-08-04 11:02:38 AM,-,1628067636830,
2021-08-04 11:02:38 AM,-,1628067636833,
2021-08-04 11:02:38 AM,-,1628067636836,
2021-08-04 11:02:38 AM,-,1628067636840,
2021-08-04 11:02:38 AM,-,1628067636843,
2021-08-04 11:02:38 AM,-,1628067636846,
2021-08-04 11:02:38 AM,-,1628067636850,
2021-08-04 11:02:38 AM,-,1628067636853,
2021-08-04 11:02:38 AM,-,1628067636856,
2021-08-04 11:02:38 AM,-,1628067636860,
2021-08-04 11:02:38 AM,-,1628067636863,
2021-08-04 11:02:38 AM,-,1628067636866,
2021-08-04 11:02:38 AM,-,1628067636870,
2021-08-04 11:02:38 AM,-,1628067636873,
2021-08-04 11:02:38 AM,-,1628067636876,
2021-08-04 11:02:38 AM,-,1628067636880,
2021-08-04 11:02:38 AM,-,1628067636883,
2021-08-04 11:02:38 AM,-,1628067636886,
2021-08-04 11:02:38 AM,-,1628067636890,
2021-08-04 11:02:38 AM,-,1628067636893,
2021-08-04 11:02:38 AM,-,1628067636896,
2021-08-04 11:02:38 AM,-,1628067636900,
2021-08-04 11:02:38 AM,-,1628067636903,
2021-08-04 11:02:38 AM,-,1628067636906,
2021-08-04 11:02:38 AM,-,1628067636910,
2021-08-04 11:02:38 AM,-,1628067636913,
2021-08-04 11:02:38 AM,-,1628067636916,
2021-08-04 11:02:38 AM,-,1628067636920,
2021-08-04 11:02:38 AM,-,1628067636923,
2021-08-04 11:02:38 AM,-,1628067636926,
2021-08-04 11:02:38 AM,-,1628067636930,
2021-08-04 11:02:38 AM,-,1628067636933,
2021-08-04 11:02:38 AM,-,1628067636936,
2021-08-04 11:02:38 AM,-,1628067636940,
2021-08-04 11:02:38 AM,-,1628067636943,
2021-08-04 11:02:38 AM,-,1628067636946,
2021-08-04 11:02:38 AM,-,1628067636950,
2021-08-04 11:02:38 AM,-,1628067636953,
2021-08-04 11:02:38 AM,-,1628067636956,
2021-08-04 11:02:38 AM,-,1628067636960,
2021-08-04 11:02:38 AM,-,1628067636963,
2021-08-04 11:02:38 AM,-,1628067636966,
2021-08-04 11:02:38 AM,-,1628067636970,
2021-08-04 11:02:38 AM,-,1628067636973,
2021-08-04 11:02:38 AM,-,1628067636976,
2021-08-04 11:02:38 AM,-,1628067636980,
2021-08-04 11:02:38 AM,-,1628067636983,
2021-08-04 11:02:38 AM,-,1628067636986,
2021-08-04 11:02:38 AM,-,1628067636990,
2021-08-04 11:02:38 AM,-,1628067636993,
2021-08-04 11:02:38 AM,-,1628067636996,
2021-08-04 11:02:39 AM,-,1628067637000,
2021-08-04 11:02:39 AM,-,1628067637003,
2021-08-04 11:02:39 AM,-,1628067637006,
2021-08-04 11:02:39 AM,-,1628067637010,
2021-08-04 11:02:39 AM,-,1628067637013,
2021-08-04 11:02:39 AM,-,1628067637016,
2021-08-04 11:02:39 AM,-,1628067637020,
2021-08-04 11:02:39 AM,-,1628067637023,
2021-08-04 11:02:39 AM,-,1628067637026,
2021-08-04 11:02:39 AM,-,1628067637030,
2021-08-04 11:02:39 AM,-,1628067637033,
2021-08-04 11:02:39 AM,-,1628067637036,
2021-08-04 11:02:39 AM,-,1628067637040,
2021-08-04 11:02:39 AM,-,1628067637043,
2021-08-04 11:02:39 AM,-,1628067637046,
2021-08-04 11:02:39 AM,-,1628067637050,
2021-08-04 11:02:39 AM,-,1628067637053,
2021-08-04 11:02:39 AM,-,1628067637056,
2021-08-04 11:02:39 AM,-,1628067637060,
2021-08-04 11:02:39 AM,-,1628067637063,
2021-08-04 11:02:39 AM,-,1628067637066,
2021-08-04 11:02:39 AM,-,1628067637070,
2021-08-04 11:02:39 AM,-,1628067637073,
2021-08-04 11:02:39 AM,-,1628067637076,
2021-08-04 11:02:39 AM,-,1628067637080,
2021-08-04 11:02:39 AM,-,1628067637083,
2021-08-04 11:02:39 AM,-,1628067637086,
2021-08-04 11:02:39 AM,-,1628067637090,
2021-08-04 11:02:39 AM,-,1628067637093,
2021-08-04 11:02:39 AM,-,1628067637096,
2021-08-04 11:02:39 AM,-,1628067637100,
2021-08-04 11:02:39 AM,-,1628067637103,
2021-08-04 11:02:39 AM,-,1628067637106,
2021-08-04 11:02:39 AM,-,1628067637110,
2021-08-04 11:02:39 AM,-,1628067637113,
2021-08-04 11:02:39 AM,-,1628067637116,
2021-08-04 11:02:39 AM,-,1628067637120,
2021-08-04 11:02:39 AM,-,1628067637123,
2021-08-04 11:02:39 AM,-,1628067637126,
2021-08-04 11:02:39 AM,-,1628067637130,
2021-08-04 11:02:39 AM,-,1628067637133,
2021-08-04 11:02:39 AM,-,1628067637136,
2021-08-04 11:02:39 AM,-,1628067637140,
2021-08-04 11:02:39 AM,-,1628067637143,
2021-08-04 11:02:39 AM,-,1628067637146,
2021-08-04 11:02:39 AM,-,1628067637150,
2021-08-04 11:02:39 AM,-,1628067637153,
2021-08-04 11:02:39 AM,-,1628067637156,
2021-08-04 11:02:39 AM,-,1628067637160,
2021-08-04 11:02:39 AM,-,1628067637163,
2021-08-04 11:02:39 AM,-,1628067637166,
2021-08-04 11:02:39 AM,-,1628067637170,
2021-08-04 11:02:39 AM,-,1628067637173,
2021-08-04 11:02:39 AM,-,1628067637176,
2021-08-04 11:02:39 AM,-,1628067637180,
2021-08-04 11:02:39 AM,-,1628067637183,
2021-08-04 11:02:39 AM,-,1628067637186,
2021-08-04 11:02:39 AM,-,1628067637190,
2021-08-04 11:02:39 AM,-,1628067637193,
2021-08-04 11:02:39 AM,-,1628067637196,
2021-08-04 11:02:39 AM,-,1628067637200,
2021-08-04 11:02:39 AM,-,1628067637203,
2021-08-04 11:02:39 AM,-,1628067637206,
2021-08-04 11:02:39 AM,-,1628067637210,
2021-08-04 11:02:39 AM,-,1628067637213,
2021-08-04 11:02:39 AM,-,1628067637216,
2021-08-04 11:02:39 AM,-,1628067637220,
2021-08-04 11:02:39 AM,-,1628067637223,
2021-08-04 11:02:39 AM,-,1628067637226,
2021-08-04 11:02:39 AM,-,1628067637230,
2021-08-04 11:02:39 AM,-,1628067637233,
2021-08-04 11:02:39 AM,-,1628067637236,
2021-08-04 11:02:39 AM,-,1628067637240,
2021-08-04 11:02:39 AM,-,1628067637243,
2021-08-04 11:02:39 AM,-,1628067637246,
2021-08-04 11:02:39 AM,-,1628067637250,
2021-08-04 11:02:39 AM,-,1628067637253,
2021-08-04 11:02:39 AM,-,1628067637256,
2021-08-04 11:02:39 AM,-,1628067637260,
2021-08-04 11:02:39 AM,-,1628067637263,
2021-08-04 11:02:39 AM,-,1628067637266,
2021-08-04 11:02:39 AM,-,1628067637270,
2021-08-04 11:02:39 AM,-,1628067637273,
2021-08-04 11:02:39 AM,-,1628067637276,
2021-08-04 11:02:39 AM,-,1628067637280,
2021-08-04 11:02:39 AM,-,1628067637283,
2021-08-04 11:02:39 AM,-,1628067637286,
2021-08-04 11:02:39 AM,-,1628067637290,
2021-08-04 11:02:39 AM,-,1628067637293,
2021-08-04 11:02:39 AM,-,1628067637296,
2021-08-04 11:02:39 AM,-,1628067637300,
2021-08-04 11:02:39 AM,-,1628067637303,
2021-08-04 11:02:39 AM,-,1628067637306,
2021-08-04 11:02:39 AM,-,1628067637310,
2021-08-04 11:02:39 AM,-,1628067637313,
2021-08-04 11:02:39 AM,-,1628067637316,
2021-08-04 11:02:39 AM,-,1628067637320,
2021-08-04 11:02:39 AM,-,1628067637323,
2021-08-04 11:02:39 AM,-,1628067637326,
2021-08-04 11:02:39 AM,-,1628067637330,
2021-08-04 11:02:39 AM,-,1628067637333,
2021-08-04 11:02:39 AM,-,1628067637336,
2021-08-04 11:02:39 AM,-,1628067637340,
2021-08-04 11:02:39 AM,-,1628067637343,
2021-08-04 11:02:39 AM,-,1628067637346,
2021-08-04 11:02:39 AM,-,1628067637350,
2021-08-04 11:02:39 AM,-,1628067637353,
2021-08-04 11:02:39 AM,-,1628067637356,
2021-08-04 11:02:39 AM,-,1628067637360,
2021-08-04 11:02:39 AM,-,1628067637363,
2021-08-04 11:02:39 AM,-,1628067637366,
2021-08-04 11:02:39 AM,-,1628067637370,
2021-08-04 11:02:39 AM,-,1628067637373,
2021-08-04 11:02:39 AM,-,1628067637376,
2021-08-04 11:02:39 AM,-,1628067637380,
2021-08-04 11:02:39 AM,-,1628067637383,
2021-08-04 11:02:39 AM,-,1628067637386,
2021-08-04 11:02:39 AM,-,1628067637390,
2021-08-04 11:02:39 AM,-,1628067637393,
2021-08-04 11:02:39 AM,-,1628067637396,
2021-08-04 11:02:39 AM,-,1628067637400,
2021-08-04 11:02:39 AM,-,1628067637403,
2021-08-04 11:02:39 AM,-,1628067637406,
2021-08-04 11:02:39 AM,-,1628067637410,
2021-08-04 11:02:39 AM,-,1628067637413,
2021-08-04 11:02:39 AM,-,1628067637416,
2021-08-04 11:02:39 AM,-,1628067637420,
2021-08-04 11:02:39 AM,-,1628067637423,
2021-08-04 11:02:39 AM,-,1628067637426,
2021-08-04 11:02:39 AM,-,1628067637430,
2021-08-04 11:02:39 AM,-,1628067637433,
2021-08-04 11:02:39 AM,-,1628067637436,
2021-08-04 11:02:39 AM,-,1628067637440,
2021-08-04 11:02:39 AM,-,1628067637443,
2021-08-04 11:02:39 AM,-,1628067637446,
2021-08-04 11:02:39 AM,-,1628067637450,
2021-08-04 11:02:39 AM,-,1628067637453,
2021-08-04 11:02:39 AM,-,1628067637456,
2021-08-04 11:02:39 AM,-,1628067637460,
2021-08-04 11:02:39 AM,-,1628067637463,
2021-08-04 11:02:39 AM,-,1628067637466,
2021-08-04 11:02:39 AM,-,1628067637470,
2021-08-04 11:02:39 AM,-,1628067637473,
2021-08-04 11:02:39 AM,-,1628067637476,
2021-08-04 11:02:39 AM,-,1628067637480,
2021-08-04 11:02:39 AM,-,1628067637483,
2021-08-04 11:02:39 AM,-,1628067637486,
2021-08-04 11:02:39 AM,-,1628067637490,
2021-08-04 11:02:39 AM,-,1628067637493,
2021-08-04 11:02:39 AM,-,1628067637496,
2021-08-04 11:02:39 AM,-,1628067637500,
2021-08-04 11:02:39 AM,-,1628067637503,
2021-08-04 11:02:39 AM,-,1628067637506,
2021-08-04 11:02:39 AM,-,1628067637510,
2021-08-04 11:02:39 AM,-,1628067637513,
2021-08-04 11:02:39 AM,-,1628067637516,
2021-08-04 11:02:39 AM,-,1628067637520,
2021-08-04 11:02:39 AM,-,1628067637523,
2021-08-04 11:02:39 AM,-,1628067637526,
2021-08-04 11:02:39 AM,-,1628067637530,
2021-08-04 11:02:39 AM,-,1628067637533,
2021-08-04 11:02:39 AM,-,1628067637536,
2021-08-04 11:02:39 AM,-,1628067637540,
2021-08-04 11:02:39 AM,-,1628067637543,
2021-08-04 11:02:39 AM,-,1628067637546,
2021-08-04 11:02:39 AM,-,1628067637550,
2021-08-04 11:02:39 AM,-,1628067637553,
2021-08-04 11:02:39 AM,-,1628067637556,
2021-08-04 11:02:39 AM,-,1628067637560,
2021-08-04 11:02:39 AM,-,1628067637563,
2021-08-04 11:02:39 AM,-,1628067637566,
2021-08-04 11:02:39 AM,-,1628067637570,
2021-08-04 11:02:39 AM,-,1628067637573,
2021-08-04 11:02:39 AM,-,1628067637576,
2021-08-04 11:02:39 AM,-,1628067637580,
2021-08-04 11:02:39 AM,-,1628067637583,
2021-08-04 11:02:39 AM,-,1628067637586,
2021-08-04 11:02:39 AM,-,1628067637590,
2021-08-04 11:02:39 AM,-,1628067637593,
2021-08-04 11:02:39 AM,-,1628067637596,
2021-08-04 11:02:39 AM,-,1628067637600,
2021-08-04 11:02:39 AM,-,1628067637603,
2021-08-04 11:02:39 AM,-,1628067637606,
2021-08-04 11:02:39 AM,-,1628067637610,
2021-08-04 11:02:39 AM,-,1628067637613,
2021-08-04 11:02:39 AM,-,1628067637616,
2021-08-04 11:02:39 AM,-,1628067637620,
2021-08-04 11:02:39 AM,-,1628067637623,
2021-08-04 11:02:39 AM,-,1628067637626,
2021-08-04 11:02:39 AM,-,1628067637630,
2021-08-04 11:02:39 AM,-,1628067637633,
2021-08-04 11:02:39 AM,-,1628067637636,
2021-08-04 11:02:39 AM,-,1628067637640,
2021-08-04 11:02:39 AM,-,1628067637643,
2021-08-04 11:02:39 AM,-,1628067637646,
2021-08-04 11:02:39 AM,-,1628067637650,
2021-08-04 11:02:39 AM,-,1628067637653,
2021-08-04 11:02:39 AM,-,1628067637656,
2021-08-04 11:02:39 AM,-,1628067637660,
2021-08-04 11:02:39 AM,-,1628067637663,
2021-08-04 11:02:39 AM,-,1628067637666,
2021-08-04 11:02:39 AM,-,1628067637670,
2021-08-04 11:02:39 AM,-,1628067637673,
2021-08-04 11:02:39 AM,-,1628067637676,
2021-08-04 11:02:39 AM,-,1628067637680,
2021-08-04 11:02:39 AM,-,1628067637683,
2021-08-04 11:02:39 AM,-,1628067637686,
2021-08-04 11:02:39 AM,-,1628067637690,
2021-08-04 11:02:39 AM,-,1628067637693,
2021-08-04 11:02:39 AM,-,1628067637696,
2021-08-04 11:02:39 AM,-,1628067637700,
2021-08-04 11:02:39 AM,-,1628067637703,
2021-08-04 11:02:39 AM,-,1628067637706,
2021-08-04 11:02:39 AM,-,1628067637710,
2021-08-04 11:02:39 AM,-,1628067637713,
2021-08-04 11:02:39 AM,-,1628067637716,
2021-08-04 11:02:39 AM,-,1628067637720,
2021-08-04 11:02:39 AM,-,1628067637723,
2021-08-04 11:02:39 AM,-,1628067637726,
2021-08-04 11:02:39 AM,-,1628067637730,
2021-08-04 11:02:39 AM,-,1628067637733,
2021-08-04 11:02:39 AM,-,1628067637736,
2021-08-04 11:02:39 AM,-,1628067637740,
2021-08-04 11:02:39 AM,-,1628067637743,
2021-08-04 11:02:39 AM,-,1628067637746,
2021-08-04 11:02:39 AM,-,1628067637750,
2021-08-04 11:02:39 AM,-,1628067637753,
2021-08-04 11:02:39 AM,-,1628067637756,
2021-08-04 11:02:39 AM,-,1628067637760,
2021-08-04 11:02:39 AM,-,1628067637763,
2021-08-04 11:02:39 AM,-,1628067637766,
2021-08-04 11:02:39 AM,-,1628067637770,
2021-08-04 11:02:39 AM,-,1628067637773,
2021-08-04 11:02:39 AM,-,1628067637776,
2021-08-04 11:02:39 AM,-,1628067637780,
2021-08-04 11:02:39 AM,-,1628067637783,
2021-08-04 11:02:39 AM,-,1628067637786,
2021-08-04 11:02:39 AM,-,1628067637790,
2021-08-04 11:02:39 AM,-,1628067637793,
2021-08-04 11:02:39 AM,-,1628067637796,
2021-08-04 11:02:39 AM,-,1628067637800,
2021-08-04 11:02:39 AM,-,1628067637803,
2021-08-04 11:02:39 AM,-,1628067637806,
2021-08-04 11:02:39 AM,-,1628067637810,
2021-08-04 11:02:39 AM,-,1628067637813,
2021-08-04 11:02:39 AM,-,1628067637816,
2021-08-04 11:02:39 AM,-,1628067637820,
2021-08-04 11:02:39 AM,-,1628067637823,
2021-08-04 11:02:39 AM,-,1628067637826,
2021-08-04 11:02:39 AM,-,1628067637830,
2021-08-04 11:02:39 AM,-,1628067637833,
2021-08-04 11:02:39 AM,-,1628067637836,
2021-08-04 11:02:39 AM,-,1628067637840,
2021-08-04 11:02:39 AM,-,1628067637843,
2021-08-04 11:02:39 AM,-,1628067637846,
2021-08-04 11:02:39 AM,-,1628067637850,
2021-08-04 11:02:39 AM,-,1628067637853,
2021-08-04 11:02:39 AM,-,1628067637856,
2021-08-04 11:02:39 AM,-,1628067637860,
2021-08-04 11:02:39 AM,-,1628067637863,
2021-08-04 11:02:39 AM,-,1628067637866,
2021-08-04 11:02:39 AM,-,1628067637870,
2021-08-04 11:02:39 AM,-,1628067637873,
2021-08-04 11:02:39 AM,-,1628067637876,
2021-08-04 11:02:39 AM,-,1628067637880,
2021-08-04 11:02:39 AM,-,1628067637883,
2021-08-04 11:02:39 AM,-,1628067637886,
2021-08-04 11:02:39 AM,-,1628067637890,
2021-08-04 11:02:39 AM,-,1628067637893,
2021-08-04 11:02:39 AM,-,1628067637896,
2021-08-04 11:02:39 AM,-,1628067637900,
2021-08-04 11:02:39 AM,-,1628067637903,
2021-08-04 11:02:39 AM,-,1628067637906,
2021-08-04 11:02:39 AM,-,1628067637910,
2021-08-04 11:02:39 AM,-,1628067637913,
2021-08-04 11:02:39 AM,-,1628067637916,
2021-08-04 11:02:39 AM,-,1628067637920,
2021-08-04 11:02:39 AM,-,1628067637923,
2021-08-04 11:02:39 AM,-,1628067637926,
2021-08-04 11:02:39 AM,-,1628067637930,
2021-08-04 11:02:39 AM,-,1628067637933,
2021-08-04 11:02:39 AM,-,1628067637936,
2021-08-04 11:02:39 AM,-,1628067637940,
2021-08-04 11:02:39 AM,-,1628067637943,
2021-08-04 11:02:39 AM,-,1628067637946,
2021-08-04 11:02:39 AM,-,1628067637950,
2021-08-04 11:02:39 AM,-,1628067637953,
2021-08-04 11:02:39 AM,-,1628067637956,
2021-08-04 11:02:39 AM,-,1628067637960,
2021-08-04 11:02:39 AM,-,1628067637963,
2021-08-04 11:02:39 AM,-,1628067637966,
2021-08-04 11:02:39 AM,-,1628067637970,
2021-08-04 11:02:39 AM,-,1628067637973,
2021-08-04 11:02:39 AM,-,1628067637976,
2021-08-04 11:02:39 AM,-,1628067637980,
2021-08-04 11:02:39 AM,-,1628067637983,
2021-08-04 11:02:39 AM,-,1628067637986,
2021-08-04 11:02:39 AM,-,1628067637990,
2021-08-04 11:02:39 AM,-,1628067637993,
2021-08-04 11:02:39 AM,-,1628067637996,
2021-08-04 11:02:40 AM,-,1628067638000,
2021-08-04 11:02:40 AM,-,1628067638003,
2021-08-04 11:02:40 AM,-,1628067638006,
2021-08-04 11:02:40 AM,-,1628067638010,
2021-08-04 11:02:40 AM,-,1628067638013,
2021-08-04 11:02:40 AM,-,1628067638016,
2021-08-04 11:02:40 AM,-,1628067638020,
2021-08-04 11:02:40 AM,-,1628067638023,
2021-08-04 11:02:40 AM,-,1628067638026,
2021-08-04 11:02:40 AM,-,1628067638030,
2021-08-04 11:02:40 AM,-,1628067638033,
2021-08-04 11:02:40 AM,-,1628067638036,
2021-08-04 11:02:40 AM,-,1628067638040,
2021-08-04 11:02:40 AM,-,1628067638043,
2021-08-04 11:02:40 AM,-,1628067638046,
2021-08-04 11:02:40 AM,-,1628067638050,
2021-08-04 11:02:40 AM,-,1628067638053,
2021-08-04 11:02:40 AM,-,1628067638056,
2021-08-04 11:02:40 AM,-,1628067638060,
2021-08-04 11:02:40 AM,-,1628067638063,
2021-08-04 11:02:40 AM,-,1628067638066,
2021-08-04 11:02:40 AM,-,1628067638070,
2021-08-04 11:02:40 AM,-,1628067638073,
2021-08-04 11:02:40 AM,-,1628067638076,
2021-08-04 11:02:40 AM,-,1628067638080,
2021-08-04 11:02:40 AM,-,1628067638083,
2021-08-04 11:02:40 AM,-,1628067638086,
2021-08-04 11:02:40 AM,-,1628067638090,
2021-08-04 11:02:40 AM,-,1628067638093,
2021-08-04 11:02:40 AM,-,1628067638096,
2021-08-04 11:02:40 AM,-,1628067638100,
2021-08-04 11:02:40 AM,-,1628067638103,
2021-08-04 11:02:40 AM,-,1628067638106,
2021-08-04 11:02:40 AM,-,1628067638110,
2021-08-04 11:02:40 AM,-,1628067638113,
2021-08-04 11:02:40 AM,-,1628067638116,
2021-08-04 11:02:40 AM,-,1628067638120,
2021-08-04 11:02:40 AM,-,1628067638123,
2021-08-04 11:02:40 AM,-,1628067638126,
2021-08-04 11:02:40 AM,-,1628067638130,
2021-08-04 11:02:40 AM,-,1628067638133,
2021-08-04 11:02:40 AM,-,1628067638136,
2021-08-04 11:02:40 AM,-,1628067638140,
2021-08-04 11:02:40 AM,-,1628067638143,
2021-08-04 11:02:40 AM,-,1628067638146,
2021-08-04 11:02:40 AM,-,1628067638150,
2021-08-04 11:02:40 AM,-,1628067638153,
2021-08-04 11:02:40 AM,-,1628067638156,
2021-08-04 11:02:40 AM,-,1628067638160,
2021-08-04 11:02:40 AM,-,1628067638163,
2021-08-04 11:02:40 AM,-,1628067638166,
2021-08-04 11:02:40 AM,-,1628067638170,
2021-08-04 11:02:40 AM,-,1628067638173,
2021-08-04 11:02:40 AM,-,1628067638176,
2021-08-04 11:02:40 AM,-,1628067638180,
2021-08-04 11:02:40 AM,-,1628067638183,
2021-08-04 11:02:40 AM,-,1628067638186,
2021-08-04 11:02:40 AM,-,1628067638190,
2021-08-04 11:02:40 AM,-,1628067638193,
2021-08-04 11:02:40 AM,-,1628067638196,
2021-08-04 11:02:40 AM,-,1628067638200,
2021-08-04 11:02:40 AM,-,1628067638203,
2021-08-04 11:02:40 AM,-,1628067638206,
2021-08-04 11:02:40 AM,-,1628067638210,
2021-08-04 11:02:40 AM,-,1628067638213,
2021-08-04 11:02:40 AM,-,1628067638216,
2021-08-04 11:02:40 AM,-,1628067638220,
2021-08-04 11:02:40 AM,-,1628067638223,
2021-08-04 11:02:40 AM,-,1628067638226,
2021-08-04 11:02:40 AM,-,1628067638230,
2021-08-04 11:02:40 AM,-,1628067638233,
2021-08-04 11:02:40 AM,-,1628067638236,
2021-08-04 11:02:40 AM,-,1628067638240,
2021-08-04 11:02:40 AM,-,1628067638243,
2021-08-04 11:02:40 AM,-,1628067638246,
2021-08-04 11:02:40 AM,-,1628067638250,
2021-08-04 11:02:40 AM,-,1628067638253,
2021-08-04 11:02:40 AM,-,1628067638256,
2021-08-04 11:02:40 AM,-,1628067638260,
2021-08-04 11:02:40 AM,-,1628067638263,
2021-08-04 11:02:40 AM,-,1628067638266,
2021-08-04 11:02:40 AM,-,1628067638270,
2021-08-04 11:02:40 AM,-,1628067638273,
2021-08-04 11:02:40 AM,-,1628067638276,
2021-08-04 11:02:40 AM,-,1628067638280,
2021-08-04 11:02:40 AM,-,1628067638283,
2021-08-04 11:02:40 AM,-,1628067638286,
2021-08-04 11:02:40 AM,-,1628067638290,
2021-08-04 11:02:40 AM,-,1628067638293,
2021-08-04 11:02:40 AM,-,1628067638296,
2021-08-04 11:02:40 AM,-,1628067638300,
2021-08-04 11:02:40 AM,-,1628067638303,
2021-08-04 11:02:40 AM,-,1628067638306,
2021-08-04 11:02:40 AM,-,1628067638310,
2021-08-04 11:02:40 AM,-,1628067638313,
2021-08-04 11:02:40 AM,-,1628067638316,
2021-08-04 11:02:40 AM,-,1628067638320,
2021-08-04 11:02:40 AM,-,1628067638323,
2021-08-04 11:02:40 AM,-,1628067638326,
2021-08-04 11:02:40 AM,-,1628067638330,
2021-08-04 11:02:40 AM,-,1628067638333,
2021-08-04 11:02:40 AM,-,1628067638336,
2021-08-04 11:02:40 AM,-,1628067638340,
2021-08-04 11:02:40 AM,-,1628067638343,
2021-08-04 11:02:40 AM,-,1628067638346,
2021-08-04 11:02:40 AM,-,1628067638350,
2021-08-04 11:02:40 AM,-,1628067638353,
2021-08-04 11:02:40 AM,-,1628067638356,
2021-08-04 11:02:40 AM,-,1628067638360,
2021-08-04 11:02:40 AM,-,1628067638363,
2021-08-04 11:02:40 AM,-,1628067638366,
2021-08-04 11:02:40 AM,-,1628067638370,
2021-08-04 11:02:40 AM,-,1628067638373,
2021-08-04 11:02:40 AM,-,1628067638376,
2021-08-04 11:02:40 AM,-,1628067638380,
2021-08-04 11:02:40 AM,-,1628067638383,
2021-08-04 11:02:40 AM,-,1628067638386,
2021-08-04 11:02:40 AM,-,1628067638390,
2021-08-04 11:02:40 AM,-,1628067638393,
2021-08-04 11:02:40 AM,-,1628067638396,
2021-08-04 11:02:40 AM,-,1628067638400,
2021-08-04 11:02:40 AM,-,1628067638403,
2021-08-04 11:02:40 AM,-,1628067638406,
2021-08-04 11:02:40 AM,-,1628067638410,
2021-08-04 11:02:40 AM,-,1628067638413,
2021-08-04 11:02:40 AM,-,1628067638416,
2021-08-04 11:02:40 AM,-,1628067638420,
2021-08-04 11:02:40 AM,-,1628067638423,
2021-08-04 11:02:40 AM,-,1628067638426,
2021-08-04 11:02:40 AM,-,1628067638430,
2021-08-04 11:02:40 AM,-,1628067638433,
2021-08-04 11:02:40 AM,-,1628067638436,
2021-08-04 11:02:40 AM,-,1628067638440,
2021-08-04 11:02:40 AM,-,1628067638443,
2021-08-04 11:02:40 AM,-,1628067638446,
2021-08-04 11:02:40 AM,-,1628067638450,
2021-08-04 11:02:40 AM,-,1628067638453,
2021-08-04 11:02:40 AM,-,1628067638456,
2021-08-04 11:02:40 AM,-,1628067638460,
2021-08-04 11:02:40 AM,-,1628067638463,
2021-08-04 11:02:40 AM,-,1628067638466,
2021-08-04 11:02:40 AM,-,1628067638470,
2021-08-04 11:02:40 AM,-,1628067638473,
2021-08-04 11:02:40 AM,-,1628067638476,
2021-08-04 11:02:40 AM,-,1628067638480,
2021-08-04 11:02:40 AM,-,1628067638483,
2021-08-04 11:02:40 AM,-,1628067638486,
2021-08-04 11:02:40 AM,-,1628067638490,
2021-08-04 11:02:40 AM,-,1628067638493,
2021-08-04 11:02:40 AM,-,1628067638496,
2021-08-04 11:02:40 AM,-,1628067638500,
2021-08-04 11:02:40 AM,-,1628067638503,
2021-08-04 11:02:40 AM,-,1628067638506,
2021-08-04 11:02:40 AM,-,1628067638510,
2021-08-04 11:02:40 AM,-,1628067638513,
2021-08-04 11:02:40 AM,-,1628067638516,
2021-08-04 11:02:40 AM,-,1628067638520,
2021-08-04 11:02:40 AM,-,1628067638523,
2021-08-04 11:02:40 AM,-,1628067638526,
2021-08-04 11:02:40 AM,-,1628067638530,
2021-08-04 11:02:40 AM,-,1628067638533,
2021-08-04 11:02:40 AM,-,1628067638536,
2021-08-04 11:02:40 AM,-,1628067638540,
2021-08-04 11:02:40 AM,-,1628067638543,
2021-08-04 11:02:40 AM,-,1628067638546,
2021-08-04 11:02:40 AM,-,1628067638550,
2021-08-04 11:02:40 AM,-,1628067638553,
2021-08-04 11:02:40 AM,-,1628067638556,
2021-08-04 11:02:40 AM,-,1628067638560,
2021-08-04 11:02:40 AM,-,1628067638563,
2021-08-04 11:02:40 AM,-,1628067638566,
2021-08-04 11:02:40 AM,-,1628067638570,
2021-08-04 11:02:40 AM,-,1628067638573,
2021-08-04 11:02:40 AM,-,1628067638576,
2021-08-04 11:02:40 AM,-,1628067638580,
2021-08-04 11:02:40 AM,-,1628067638583,
2021-08-04 11:02:40 AM,-,1628067638586,
2021-08-04 11:02:40 AM,-,1628067638590,
2021-08-04 11:02:40 AM,-,1628067638593,
2021-08-04 11:02:40 AM,-,1628067638596,
2021-08-04 11:02:40 AM,-,1628067638600,
2021-08-04 11:02:40 AM,-,1628067638603,
2021-08-04 11:02:40 AM,-,1628067638606,
2021-08-04 11:02:40 AM,-,1628067638610,
2021-08-04 11:02:40 AM,-,1628067638613,
2021-08-04 11:02:40 AM,-,1628067638616,
2021-08-04 11:02:40 AM,-,1628067638620,
2021-08-04 11:02:40 AM,-,1628067638623,
2021-08-04 11:02:40 AM,-,1628067638626,
2021-08-04 11:02:40 AM,-,1628067638630,
2021-08-04 11:02:40 AM,-,1628067638633,
2021-08-04 11:02:40 AM,-,1628067638636,
2021-08-04 11:02:40 AM,-,1628067638640,
2021-08-04 11:02:40 AM,-,1628067638643,
2021-08-04 11:02:40 AM,-,1628067638646,
2021-08-04 11:02:40 AM,-,1628067638650,
2021-08-04 11:02:40 AM,-,1628067638653,
2021-08-04 11:02:40 AM,-,1628067638656,
2021-08-04 11:02:40 AM,-,1628067638660,
2021-08-04 11:02:40 AM,-,1628067638663,
2021-08-04 11:02:40 AM,-,1628067638666,
2021-08-04 11:02:40 AM,-,1628067638670,
2021-08-04 11:02:40 AM,-,1628067638673,
2021-08-04 11:02:40 AM,-,1628067638676,
2021-08-04 11:02:40 AM,-,1628067638680,
2021-08-04 11:02:40 AM,-,1628067638683,
2021-08-04 11:02:40 AM,-,1628067638686,
2021-08-04 11:02:40 AM,-,1628067638690,
2021-08-04 11:02:40 AM,-,1628067638693,
2021-08-04 11:02:40 AM,-,1628067638696,
2021-08-04 11:02:40 AM,-,1628067638700,
2021-08-04 11:02:40 AM,-,1628067638703,
2021-08-04 11:02:40 AM,-,1628067638706,
2021-08-04 11:02:40 AM,-,1628067638710,
2021-08-04 11:02:40 AM,-,1628067638713,
2021-08-04 11:02:40 AM,-,1628067638716,
2021-08-04 11:02:40 AM,-,1628067638720,
2021-08-04 11:02:40 AM,-,1628067638723,
2021-08-04 11:02:40 AM,-,1628067638726,
2021-08-04 11:02:40 AM,-,1628067638730,
2021-08-04 11:02:40 AM,-,1628067638733,
2021-08-04 11:02:40 AM,-,1628067638736,
2021-08-04 11:02:40 AM,-,1628067638740,
2021-08-04 11:02:40 AM,-,1628067638743,
2021-08-04 11:02:40 AM,-,1628067638746,
2021-08-04 11:02:40 AM,-,1628067638750,
2021-08-04 11:02:40 AM,-,1628067638753,
2021-08-04 11:02:40 AM,-,1628067638756,
2021-08-04 11:02:40 AM,-,1628067638760,
2021-08-04 11:02:40 AM,-,1628067638763,
2021-08-04 11:02:40 AM,-,1628067638766,
2021-08-04 11:02:40 AM,-,1628067638770,
2021-08-04 11:02:40 AM,-,1628067638773,
2021-08-04 11:02:40 AM,-,1628067638776,
2021-08-04 11:02:40 AM,-,1628067638780,
2021-08-04 11:02:40 AM,-,1628067638783,
2021-08-04 11:02:40 AM,-,1628067638786,
2021-08-04 11:02:40 AM,-,1628067638790,
2021-08-04 11:02:40 AM,-,1628067638793,
2021-08-04 11:02:40 AM,-,1628067638796,
2021-08-04 11:02:40 AM,-,1628067638800,
2021-08-04 11:02:40 AM,-,1628067638803,
2021-08-04 11:02:40 AM,-,1628067638806,
2021-08-04 11:02:40 AM,-,1628067638810,
2021-08-04 11:02:40 AM,-,1628067638813,
2021-08-04 11:02:40 AM,-,1628067638816,
2021-08-04 11:02:40 AM,-,1628067638820,
2021-08-04 11:02:40 AM,-,1628067638823,
2021-08-04 11:02:40 AM,-,1628067638826,
2021-08-04 11:02:40 AM,-,1628067638830,
2021-08-04 11:02:40 AM,-,1628067638833,
2021-08-04 11:02:40 AM,-,1628067638836,
2021-08-04 11:02:40 AM,-,1628067638840,
2021-08-04 11:02:40 AM,-,1628067638843,
2021-08-04 11:02:40 AM,-,1628067638846,
2021-08-04 11:02:40 AM,-,1628067638850,
2021-08-04 11:02:40 AM,-,1628067638853,
2021-08-04 11:02:40 AM,-,1628067638856,
2021-08-04 11:02:40 AM,-,1628067638860,
2021-08-04 11:02:40 AM,-,1628067638863,
2021-08-04 11:02:40 AM,-,1628067638866,
2021-08-04 11:02:40 AM,-,1628067638870,
2021-08-04 11:02:40 AM,-,1628067638873,
2021-08-04 11:02:40 AM,-,1628067638876,
2021-08-04 11:02:40 AM,-,1628067638880,
2021-08-04 11:02:40 AM,-,1628067638883,
2021-08-04 11:02:40 AM,-,1628067638886,
2021-08-04 11:02:40 AM,-,1628067638890,
2021-08-04 11:02:40 AM,-,1628067638893,
2021-08-04 11:02:40 AM,-,1628067638896,
2021-08-04 11:02:40 AM,-,1628067638900,
2021-08-04 11:02:40 AM,-,1628067638903,
2021-08-04 11:02:40 AM,-,1628067638906,
2021-08-04 11:02:40 AM,-,1628067638910,
2021-08-04 11:02:40 AM,-,1628067638913,
2021-08-04 11:02:40 AM,-,1628067638916,
2021-08-04 11:02:40 AM,-,1628067638920,
2021-08-04 11:02:40 AM,-,1628067638923,
2021-08-04 11:02:40 AM,-,1628067638926,
2021-08-04 11:02:40 AM,-,1628067638930,
2021-08-04 11:02:40 AM,-,1628067638933,
2021-08-04 11:02:40 AM,-,1628067638936,
2021-08-04 11:02:40 AM,-,1628067638940,
2021-08-04 11:02:40 AM,-,1628067638943,
2021-08-04 11:02:40 AM,-,1628067638946,
2021-08-04 11:02:40 AM,-,1628067638950,
2021-08-04 11:02:40 AM,-,1628067638953,
2021-08-04 11:02:40 AM,-,1628067638956,
2021-08-04 11:02:40 AM,-,1628067638960,
2021-08-04 11:02:40 AM,-,1628067638963,
2021-08-04 11:02:40 AM,-,1628067638966,
2021-08-04 11:02:40 AM,-,1628067638970,
2021-08-04 11:02:40 AM,-,1628067638973,
2021-08-04 11:02:40 AM,-,1628067638976,
2021-08-04 11:02:40 AM,-,1628067638980,
2021-08-04 11:02:40 AM,-,1628067638983,
2021-08-04 11:02:40 AM,-,1628067638986,
2021-08-04 11:02:40 AM,-,1628067638990,
2021-08-04 11:02:40 AM,-,1628067638993,
2021-08-04 11:02:40 AM,-,1628067638996,
2021-08-04 11:02:41 AM,-,1628067639000,
2021-08-04 11:02:41 AM,-,1628067639003,
2021-08-04 11:02:41 AM,-,1628067639006,
2021-08-04 11:02:41 AM,-,1628067639010,
2021-08-04 11:02:41 AM,-,1628067639013,
2021-08-04 11:02:41 AM,-,1628067639016,
2021-08-04 11:02:41 AM,-,1628067639020,
2021-08-04 11:02:41 AM,-,1628067639023,
2021-08-04 11:02:41 AM,-,1628067639026,
2021-08-04 11:02:41 AM,-,1628067639030,
2021-08-04 11:02:41 AM,-,1628067639033,
2021-08-04 11:02:41 AM,-,1628067639036,
2021-08-04 11:02:41 AM,-,1628067639040,
2021-08-04 11:02:41 AM,-,1628067639043,
2021-08-04 11:02:41 AM,-,1628067639046,
2021-08-04 11:02:41 AM,-,1628067639050,
2021-08-04 11:02:41 AM,-,1628067639053,
2021-08-04 11:02:41 AM,-,1628067639056,
2021-08-04 11:02:41 AM,-,1628067639060,
2021-08-04 11:02:41 AM,-,1628067639063,
2021-08-04 11:02:41 AM,-,1628067639066,
2021-08-04 11:02:41 AM,-,1628067639070,
2021-08-04 11:02:41 AM,-,1628067639073,
2021-08-04 11:02:41 AM,-,1628067639076,
2021-08-04 11:02:41 AM,-,1628067639080,
2021-08-04 11:02:41 AM,-,1628067639083,
2021-08-04 11:02:41 AM,-,1628067639086,
2021-08-04 11:02:41 AM,-,1628067639090,
2021-08-04 11:02:41 AM,-,1628067639093,
2021-08-04 11:02:41 AM,-,1628067639096,
2021-08-04 11:02:41 AM,-,1628067639100,
2021-08-04 11:02:41 AM,-,1628067639103,
2021-08-04 11:02:41 AM,-,1628067639106,
2021-08-04 11:02:41 AM,-,1628067639110,
2021-08-04 11:02:41 AM,-,1628067639113,
2021-08-04 11:02:41 AM,-,1628067639116,
2021-08-04 11:02:41 AM,-,1628067639120,
2021-08-04 11:02:41 AM,-,1628067639123,
2021-08-04 11:02:41 AM,-,1628067639126,
2021-08-04 11:02:41 AM,-,1628067639130,
2021-08-04 11:02:41 AM,-,1628067639133,
2021-08-04 11:02:41 AM,-,1628067639136,
2021-08-04 11:02:41 AM,-,1628067639140,
2021-08-04 11:02:41 AM,-,1628067639143,
2021-08-04 11:02:41 AM,-,1628067639146,
2021-08-04 11:02:41 AM,-,1628067639150,
2021-08-04 11:02:41 AM,-,1628067639153,
2021-08-04 11:02:41 AM,-,1628067639156,
2021-08-04 11:02:41 AM,-,1628067639160,
2021-08-04 11:02:41 AM,-,1628067639163,
2021-08-04 11:02:41 AM,-,1628067639166,
2021-08-04 11:02:41 AM,-,1628067639170,
2021-08-04 11:02:41 AM,-,1628067639173,
2021-08-04 11:02:41 AM,-,1628067639176,
2021-08-04 11:02:41 AM,-,1628067639180,
2021-08-04 11:02:41 AM,-,1628067639183,
2021-08-04 11:02:41 AM,-,1628067639186,
2021-08-04 11:02:41 AM,-,1628067639190,
2021-08-04 11:02:41 AM,-,1628067639193,
2021-08-04 11:02:41 AM,-,1628067639196,
2021-08-04 11:02:41 AM,-,1628067639200,
2021-08-04 11:02:41 AM,-,1628067639203,
2021-08-04 11:02:41 AM,-,1628067639206,
2021-08-04 11:02:41 AM,-,1628067639210,
2021-08-04 11:02:41 AM,-,1628067639213,
2021-08-04 11:02:41 AM,-,1628067639216,
2021-08-04 11:02:41 AM,-,1628067639220,
2021-08-04 11:02:41 AM,-,1628067639223,
2021-08-04 11:02:41 AM,-,1628067639226,
2021-08-04 11:02:41 AM,-,1628067639230,
2021-08-04 11:02:41 AM,-,1628067639233,
2021-08-04 11:02:41 AM,-,1628067639236,
2021-08-04 11:02:41 AM,-,1628067639240,
2021-08-04 11:02:41 AM,-,1628067639243,
2021-08-04 11:02:41 AM,-,1628067639246,
2021-08-04 11:02:41 AM,-,1628067639250,
2021-08-04 11:02:41 AM,-,1628067639253,
2021-08-04 11:02:41 AM,-,1628067639256,
2021-08-04 11:02:41 AM,-,1628067639260,
2021-08-04 11:02:41 AM,-,1628067639263,
2021-08-04 11:02:41 AM,-,1628067639266,
2021-08-04 11:02:41 AM,-,1628067639270,
2021-08-04 11:02:41 AM,-,1628067639273,
2021-08-04 11:02:41 AM,-,1628067639276,
2021-08-04 11:02:41 AM,-,1628067639280,
2021-08-04 11:02:41 AM,-,1628067639283,
2021-08-04 11:02:41 AM,-,1628067639286,
2021-08-04 11:02:41 AM,-,1628067639290,
2021-08-04 11:02:41 AM,-,1628067639293,
2021-08-04 11:02:41 AM,-,1628067639296,
2021-08-04 11:02:41 AM,-,1628067639300,
2021-08-04 11:02:41 AM,-,1628067639303,
2021-08-04 11:02:41 AM,-,1628067639306,
2021-08-04 11:02:41 AM,-,1628067639310,
2021-08-04 11:02:41 AM,-,1628067639313,
2021-08-04 11:02:41 AM,-,1628067639316,
2021-08-04 11:02:41 AM,-,1628067639320,
2021-08-04 11:02:41 AM,-,1628067639323,
2021-08-04 11:02:41 AM,-,1628067639326,
2021-08-04 11:02:41 AM,-,1628067639330,
2021-08-04 11:02:41 AM,-,1628067639333,
2021-08-04 11:02:41 AM,-,1628067639336,
2021-08-04 11:02:41 AM,-,1628067639340,
2021-08-04 11:02:41 AM,-,1628067639343,
2021-08-04 11:02:41 AM,-,1628067639346,
2021-08-04 11:02:41 AM,-,1628067639350,
2021-08-04 11:02:41 AM,-,1628067639353,
2021-08-04 11:02:41 AM,-,1628067639356,
2021-08-04 11:02:41 AM,-,1628067639360,
2021-08-04 11:02:41 AM,-,1628067639363,
2021-08-04 11:02:41 AM,-,1628067639366,
2021-08-04 11:02:41 AM,-,1628067639370,
2021-08-04 11:02:41 AM,-,1628067639373,
2021-08-04 11:02:41 AM,-,1628067639376,
2021-08-04 11:02:41 AM,-,1628067639380,
2021-08-04 11:02:41 AM,-,1628067639383,
2021-08-04 11:02:41 AM,-,1628067639386,
2021-08-04 11:02:41 AM,-,1628067639390,
2021-08-04 11:02:41 AM,-,1628067639393,
2021-08-04 11:02:41 AM,-,1628067639396,
2021-08-04 11:02:41 AM,-,1628067639400,
2021-08-04 11:02:41 AM,-,1628067639403,
2021-08-04 11:02:41 AM,-,1628067639406,
2021-08-04 11:02:41 AM,-,1628067639410,
2021-08-04 11:02:41 AM,-,1628067639413,
2021-08-04 11:02:41 AM,-,1628067639416,
2021-08-04 11:02:41 AM,-,1628067639420,
2021-08-04 11:02:41 AM,-,1628067639423,
2021-08-04 11:02:41 AM,-,1628067639426,
2021-08-04 11:02:41 AM,-,1628067639430,
2021-08-04 11:02:41 AM,-,1628067639433,
2021-08-04 11:02:41 AM,-,1628067639436,
2021-08-04 11:02:41 AM,-,1628067639440,
2021-08-04 11:02:41 AM,-,1628067639443,
2021-08-04 11:02:41 AM,-,1628067639446,
2021-08-04 11:02:41 AM,-,1628067639450,
2021-08-04 11:02:41 AM,-,1628067639453,
2021-08-04 11:02:41 AM,-,1628067639456,
2021-08-04 11:02:41 AM,-,1628067639460,
2021-08-04 11:02:41 AM,-,1628067639463,
2021-08-04 11:02:41 AM,-,1628067639466,
2021-08-04 11:02:41 AM,-,1628067639470,
2021-08-04 11:02:41 AM,-,1628067639473,
2021-08-04 11:02:41 AM,-,1628067639476,
2021-08-04 11:02:41 AM,-,1628067639480,
2021-08-04 11:02:41 AM,-,1628067639483,
2021-08-04 11:02:41 AM,-,1628067639486,
2021-08-04 11:02:41 AM,-,1628067639490,
2021-08-04 11:02:41 AM,-,1628067639493,
2021-08-04 11:02:41 AM,-,1628067639496,
2021-08-04 11:02:41 AM,-,1628067639500,
2021-08-04 11:02:41 AM,-,1628067639503,
2021-08-04 11:02:41 AM,-,1628067639506,
2021-08-04 11:02:41 AM,-,1628067639510,
2021-08-04 11:02:41 AM,-,1628067639513,
2021-08-04 11:02:41 AM,-,1628067639516,
2021-08-04 11:02:41 AM,-,1628067639520,
2021-08-04 11:02:41 AM,-,1628067639523,
2021-08-04 11:02:41 AM,-,1628067639526,
2021-08-04 11:02:41 AM,-,1628067639530,
2021-08-04 11:02:41 AM,-,1628067639533,
2021-08-04 11:02:41 AM,-,1628067639536,
2021-08-04 11:02:41 AM,-,1628067639540,
2021-08-04 11:02:41 AM,-,1628067639543,
2021-08-04 11:02:41 AM,-,1628067639546,
2021-08-04 11:02:41 AM,-,1628067639550,
2021-08-04 11:02:41 AM,-,1628067639553,
2021-08-04 11:02:41 AM,-,1628067639556,
2021-08-04 11:02:41 AM,-,1628067639560,
2021-08-04 11:02:41 AM,-,1628067639563,
2021-08-04 11:02:41 AM,-,1628067639566,
2021-08-04 11:02:41 AM,-,1628067639570,
2021-08-04 11:02:41 AM,-,1628067639573,
2021-08-04 11:02:41 AM,-,1628067639576,
2021-08-04 11:02:41 AM,-,1628067639580,
2021-08-04 11:02:41 AM,-,1628067639583,
2021-08-04 11:02:41 AM,-,1628067639586,
2021-08-04 11:02:41 AM,-,1628067639590,
2021-08-04 11:02:41 AM,-,1628067639593,
2021-08-04 11:02:41 AM,-,1628067639596,
2021-08-04 11:02:41 AM,-,1628067639600,
2021-08-04 11:02:41 AM,-,1628067639603,
2021-08-04 11:02:41 AM,-,1628067639606,
2021-08-04 11:02:41 AM,-,1628067639610,
2021-08-04 11:02:41 AM,-,1628067639613,
2021-08-04 11:02:41 AM,-,1628067639616,
2021-08-04 11:02:41 AM,-,1628067639620,
2021-08-04 11:02:41 AM,-,1628067639623,
2021-08-04 11:02:41 AM,-,1628067639626,
2021-08-04 11:02:41 AM,-,1628067639630,
2021-08-04 11:02:41 AM,-,1628067639633,
2021-08-04 11:02:41 AM,-,1628067639636,
2021-08-04 11:02:41 AM,-,1628067639640,
2021-08-04 11:02:41 AM,-,1628067639643,
2021-08-04 11:02:41 AM,-,1628067639646,
2021-08-04 11:02:41 AM,-,1628067639650,
2021-08-04 11:02:41 AM,-,1628067639653,
2021-08-04 11:02:41 AM,-,1628067639656,
2021-08-04 11:02:41 AM,-,1628067639660,
2021-08-04 11:02:41 AM,-,1628067639663,
2021-08-04 11:02:41 AM,-,1628067639666,
2021-08-04 11:02:41 AM,-,1628067639670,
2021-08-04 11:02:41 AM,-,1628067639673,
2021-08-04 11:02:41 AM,-,1628067639676,
2021-08-04 11:02:41 AM,-,1628067639680,
2021-08-04 11:02:41 AM,-,1628067639683,
2021-08-04 11:02:41 AM,-,1628067639686,
2021-08-04 11:02:41 AM,-,1628067639690,
2021-08-04 11:02:41 AM,-,1628067639693,
2021-08-04 11:02:41 AM,-,1628067639696,
2021-08-04 11:02:41 AM,-,1628067639700,
2021-08-04 11:02:41 AM,-,1628067639703,
2021-08-04 11:02:41 AM,-,1628067639706,
2021-08-04 11:02:41 AM,-,1628067639710,
2021-08-04 11:02:41 AM,-,1628067639713,
2021-08-04 11:02:41 AM,-,1628067639716,
2021-08-04 11:02:41 AM,-,1628067639720,
2021-08-04 11:02:41 AM,-,1628067639723,
2021-08-04 11:02:41 AM,-,1628067639726,
2021-08-04 11:02:41 AM,-,1628067639730,
2021-08-04 11:02:41 AM,-,1628067639733,
2021-08-04 11:02:41 AM,-,1628067639736,
2021-08-04 11:02:41 AM,-,1628067639740,
2021-08-04 11:02:41 AM,-,1628067639743,
2021-08-04 11:02:41 AM,-,1628067639746,
2021-08-04 11:02:41 AM,-,1628067639750,
2021-08-04 11:02:41 AM,-,1628067639753,
2021-08-04 11:02:41 AM,-,1628067639756,
2021-08-04 11:02:41 AM,-,1628067639760,
2021-08-04 11:02:41 AM,-,1628067639763,
2021-08-04 11:02:41 AM,-,1628067639766,
2021-08-04 11:02:41 AM,-,1628067639770,
2021-08-04 11:02:41 AM,-,1628067639773,
2021-08-04 11:02:41 AM,-,1628067639776,
2021-08-04 11:02:41 AM,-,1628067639780,
2021-08-04 11:02:41 AM,-,1628067639783,
2021-08-04 11:02:41 AM,-,1628067639786,
2021-08-04 11:02:41 AM,-,1628067639790,
2021-08-04 11:02:41 AM,-,1628067639793,
2021-08-04 11:02:41 AM,-,1628067639796,
2021-08-04 11:02:41 AM,-,1628067639800,
2021-08-04 11:02:41 AM,-,1628067639803,
2021-08-04 11:02:41 AM,-,1628067639806,
2021-08-04 11:02:41 AM,-,1628067639810,
2021-08-04 11:02:41 AM,-,1628067639813,
2021-08-04 11:02:41 AM,-,1628067639816,
2021-08-04 11:02:41 AM,-,1628067639820,
2021-08-04 11:02:41 AM,-,1628067639823,
2021-08-04 11:02:41 AM,-,1628067639826,
2021-08-04 11:02:41 AM,-,1628067639830,
2021-08-04 11:02:41 AM,-,1628067639833,
2021-08-04 11:02:41 AM,-,1628067639836,
2021-08-04 11:02:41 AM,-,1628067639840,
2021-08-04 11:02:41 AM,-,1628067639843,
2021-08-04 11:02:41 AM,-,1628067639846,
2021-08-04 11:02:41 AM,-,1628067639850,
2021-08-04 11:02:41 AM,-,1628067639853,
2021-08-04 11:02:41 AM,-,1628067639856,
2021-08-04 11:02:41 AM,-,1628067639860,
2021-08-04 11:02:41 AM,-,1628067639863,
2021-08-04 11:02:41 AM,-,1628067639866,
2021-08-04 11:02:41 AM,-,1628067639870,
2021-08-04 11:02:41 AM,-,1628067639873,
2021-08-04 11:02:41 AM,-,1628067639876,
2021-08-04 11:02:41 AM,-,1628067639880,
2021-08-04 11:02:41 AM,-,1628067639883,
2021-08-04 11:02:41 AM,-,1628067639886,
2021-08-04 11:02:41 AM,-,1628067639890,
2021-08-04 11:02:41 AM,-,1628067639893,
2021-08-04 11:02:41 AM,-,1628067639896,
2021-08-04 11:02:41 AM,-,1628067639900,
2021-08-04 11:02:41 AM,-,1628067639903,
2021-08-04 11:02:41 AM,-,1628067639906,
2021-08-04 11:02:41 AM,-,1628067639910,
2021-08-04 11:02:41 AM,-,1628067639913,
2021-08-04 11:02:41 AM,-,1628067639916,
2021-08-04 11:02:41 AM,-,1628067639920,
2021-08-04 11:02:41 AM,-,1628067639923,
2021-08-04 11:02:41 AM,-,1628067639926,
2021-08-04 11:02:41 AM,-,1628067639930,
2021-08-04 11:02:41 AM,-,1628067639933,
2021-08-04 11:02:41 AM,-,1628067639936,
2021-08-04 11:02:41 AM,-,1628067639940,
2021-08-04 11:02:41 AM,-,1628067639943,
2021-08-04 11:02:41 AM,-,1628067639946,
2021-08-04 11:02:41 AM,-,1628067639950,
2021-08-04 11:02:41 AM,-,1628067639953,
2021-08-04 11:02:41 AM,-,1628067639956,
2021-08-04 11:02:41 AM,-,1628067639960,
2021-08-04 11:02:41 AM,-,1628067639963,
2021-08-04 11:02:41 AM,-,1628067639966,
2021-08-04 11:02:41 AM,-,1628067639970,
2021-08-04 11:02:41 AM,-,1628067639973,
2021-08-04 11:02:41 AM,-,1628067639976,
2021-08-04 11:02:41 AM,-,1628067639980,
2021-08-04 11:02:41 AM,-,1628067639983,
2021-08-04 11:02:41 AM,-,1628067639986,
2021-08-04 11:02:41 AM,-,1628067639990,
2021-08-04 11:02:41 AM,-,1628067639993,
2021-08-04 11:02:41 AM,-,1628067639996,
2021-08-04 11:02:42 AM,-,1628067640000,
2021-08-04 11:02:42 AM,-,1628067640003,
2021-08-04 11:02:42 AM,-,1628067640006,
2021-08-04 11:02:42 AM,-,1628067640010,
2021-08-04 11:02:42 AM,-,1628067640013,
2021-08-04 11:02:42 AM,-,1628067640016,
2021-08-04 11:02:42 AM,-,1628067640020,
2021-08-04 11:02:42 AM,-,1628067640023,
2021-08-04 11:02:42 AM,-,1628067640026,
2021-08-04 11:02:42 AM,-,1628067640030,
2021-08-04 11:02:42 AM,-,1628067640033,
2021-08-04 11:02:42 AM,-,1628067640036,
2021-08-04 11:02:42 AM,-,1628067640040,
2021-08-04 11:02:42 AM,-,1628067640043,
2021-08-04 11:02:42 AM,-,1628067640046,
2021-08-04 11:02:42 AM,-,1628067640050,
2021-08-04 11:02:42 AM,-,1628067640053,
2021-08-04 11:02:42 AM,-,1628067640056,
2021-08-04 11:02:42 AM,-,1628067640060,
2021-08-04 11:02:42 AM,-,1628067640063,
2021-08-04 11:02:42 AM,-,1628067640066,
2021-08-04 11:02:42 AM,-,1628067640070,
2021-08-04 11:02:42 AM,-,1628067640073,
2021-08-04 11:02:42 AM,-,1628067640076,
2021-08-04 11:02:42 AM,-,1628067640080,
2021-08-04 11:02:42 AM,-,1628067640083,
2021-08-04 11:02:42 AM,-,1628067640086,
2021-08-04 11:02:42 AM,-,1628067640090,
2021-08-04 11:02:42 AM,-,1628067640093,
2021-08-04 11:02:42 AM,-,1628067640096,
2021-08-04 11:02:42 AM,-,1628067640100,
2021-08-04 11:02:42 AM,-,1628067640103,
2021-08-04 11:02:42 AM,-,1628067640106,
2021-08-04 11:02:42 AM,-,1628067640110,
2021-08-04 11:02:42 AM,-,1628067640113,
2021-08-04 11:02:42 AM,-,1628067640116,
2021-08-04 11:02:42 AM,-,1628067640120,
2021-08-04 11:02:42 AM,-,1628067640123,
2021-08-04 11:02:42 AM,-,1628067640126,
2021-08-04 11:02:42 AM,-,1628067640130,
2021-08-04 11:02:42 AM,-,1628067640133,
2021-08-04 11:02:42 AM,-,1628067640136,
2021-08-04 11:02:42 AM,-,1628067640140,
2021-08-04 11:02:42 AM,-,1628067640143,
2021-08-04 11:02:42 AM,-,1628067640146,
2021-08-04 11:02:42 AM,-,1628067640150,
2021-08-04 11:02:42 AM,-,1628067640153,
2021-08-04 11:02:42 AM,-,1628067640156,
2021-08-04 11:02:42 AM,-,1628067640160,
2021-08-04 11:02:42 AM,-,1628067640163,
2021-08-04 11:02:42 AM,-,1628067640166,
2021-08-04 11:02:42 AM,-,1628067640170,
2021-08-04 11:02:42 AM,-,1628067640173,
2021-08-04 11:02:42 AM,-,1628067640176,
2021-08-04 11:02:42 AM,-,1628067640180,
2021-08-04 11:02:42 AM,-,1628067640183,
2021-08-04 11:02:42 AM,-,1628067640186,
2021-08-04 11:02:42 AM,-,1628067640190,
2021-08-04 11:02:42 AM,-,1628067640193,
2021-08-04 11:02:42 AM,-,1628067640196,
2021-08-04 11:02:42 AM,-,1628067640200,
2021-08-04 11:02:42 AM,-,1628067640203,
2021-08-04 11:02:42 AM,-,1628067640206,
2021-08-04 11:02:42 AM,-,1628067640210,
2021-08-04 11:02:42 AM,-,1628067640213,
2021-08-04 11:02:42 AM,-,1628067640216,
2021-08-04 11:02:42 AM,-,1628067640220,
2021-08-04 11:02:42 AM,-,1628067640223,
2021-08-04 11:02:42 AM,-,1628067640226,
2021-08-04 11:02:42 AM,-,1628067640230,
2021-08-04 11:02:42 AM,-,1628067640233,
2021-08-04 11:02:42 AM,-,1628067640236,
2021-08-04 11:02:42 AM,-,1628067640240,
2021-08-04 11:02:42 AM,-,1628067640243,
2021-08-04 11:02:42 AM,-,1628067640246,
2021-08-04 11:02:42 AM,-,1628067640250,
2021-08-04 11:02:42 AM,-,1628067640253,
2021-08-04 11:02:42 AM,-,1628067640256,
2021-08-04 11:02:42 AM,-,1628067640260,
2021-08-04 11:02:42 AM,-,1628067640263,
2021-08-04 11:02:42 AM,-,1628067640266,
2021-08-04 11:02:42 AM,-,1628067640270,
2021-08-04 11:02:42 AM,-,1628067640273,
2021-08-04 11:02:42 AM,-,1628067640276,
2021-08-04 11:02:42 AM,-,1628067640280,
2021-08-04 11:02:42 AM,-,1628067640283,
2021-08-04 11:02:42 AM,-,1628067640286,
2021-08-04 11:02:42 AM,-,1628067640290,
2021-08-04 11:02:42 AM,-,1628067640293,
2021-08-04 11:02:42 AM,-,1628067640296,
2021-08-04 11:02:42 AM,-,1628067640300,
2021-08-04 11:02:42 AM,-,1628067640303,
2021-08-04 11:02:42 AM,-,1628067640306,
2021-08-04 11:02:42 AM,-,1628067640310,
2021-08-04 11:02:42 AM,-,1628067640313,
2021-08-04 11:02:42 AM,-,1628067640316,
2021-08-04 11:02:42 AM,-,1628067640320,
2021-08-04 11:02:42 AM,-,1628067640323,
2021-08-04 11:02:42 AM,-,1628067640326,
2021-08-04 11:02:42 AM,-,1628067640330,
2021-08-04 11:02:42 AM,-,1628067640333,
2021-08-04 11:02:42 AM,-,1628067640336,
2021-08-04 11:02:42 AM,-,1628067640340,
2021-08-04 11:02:42 AM,-,1628067640343,
2021-08-04 11:02:42 AM,-,1628067640346,
2021-08-04 11:02:42 AM,-,1628067640350,
2021-08-04 11:02:42 AM,-,1628067640353,
2021-08-04 11:02:42 AM,-,1628067640356,
2021-08-04 11:02:42 AM,-,1628067640360,
2021-08-04 11:02:42 AM,-,1628067640363,
2021-08-04 11:02:42 AM,-,1628067640366,
2021-08-04 11:02:42 AM,-,1628067640370,
2021-08-04 11:02:42 AM,-,1628067640373,
2021-08-04 11:02:42 AM,-,1628067640376,
2021-08-04 11:02:42 AM,-,1628067640380,
2021-08-04 11:02:42 AM,-,1628067640383,
2021-08-04 11:02:42 AM,-,1628067640386,
2021-08-04 11:02:42 AM,-,1628067640390,
2021-08-04 11:02:42 AM,-,1628067640393,
2021-08-04 11:02:42 AM,-,1628067640396,
2021-08-04 11:02:42 AM,-,1628067640400,
2021-08-04 11:02:42 AM,-,1628067640403,
2021-08-04 11:02:42 AM,-,1628067640406,
2021-08-04 11:02:42 AM,-,1628067640410,
2021-08-04 11:02:42 AM,-,1628067640413,
2021-08-04 11:02:42 AM,-,1628067640416,
2021-08-04 11:02:42 AM,-,1628067640420,
2021-08-04 11:02:42 AM,-,1628067640423,
2021-08-04 11:02:42 AM,-,1628067640426,
2021-08-04 11:02:42 AM,-,1628067640430,
2021-08-04 11:02:42 AM,-,1628067640433,
2021-08-04 11:02:42 AM,-,1628067640436,
2021-08-04 11:02:42 AM,-,1628067640440,
2021-08-04 11:02:42 AM,-,1628067640443,
2021-08-04 11:02:42 AM,-,1628067640446,
2021-08-04 11:02:42 AM,-,1628067640450,
2021-08-04 11:02:42 AM,-,1628067640453,
2021-08-04 11:02:42 AM,-,1628067640456,
2021-08-04 11:02:42 AM,-,1628067640460,
2021-08-04 11:02:42 AM,-,1628067640463,
2021-08-04 11:02:42 AM,-,1628067640466,
2021-08-04 11:02:42 AM,-,1628067640470,
2021-08-04 11:02:42 AM,-,1628067640473,
2021-08-04 11:02:42 AM,-,1628067640476,
2021-08-04 11:02:42 AM,-,1628067640480,
2021-08-04 11:02:42 AM,-,1628067640483,
2021-08-04 11:02:42 AM,-,1628067640486,
2021-08-04 11:02:42 AM,-,1628067640490,
2021-08-04 11:02:42 AM,-,1628067640493,
2021-08-04 11:02:42 AM,-,1628067640496,
2021-08-04 11:02:42 AM,-,1628067640500,
2021-08-04 11:02:42 AM,-,1628067640503,
2021-08-04 11:02:42 AM,-,1628067640506,
2021-08-04 11:02:42 AM,-,1628067640510,
2021-08-04 11:02:42 AM,-,1628067640513,
2021-08-04 11:02:42 AM,-,1628067640516,
2021-08-04 11:02:42 AM,-,1628067640520,
2021-08-04 11:02:42 AM,-,1628067640523,
2021-08-04 11:02:42 AM,-,1628067640526,
2021-08-04 11:02:42 AM,-,1628067640530,
2021-08-04 11:02:42 AM,-,1628067640533,
2021-08-04 11:02:42 AM,-,1628067640536,
2021-08-04 11:02:42 AM,-,1628067640540,
2021-08-04 11:02:42 AM,-,1628067640543,
2021-08-04 11:02:42 AM,-,1628067640546,
2021-08-04 11:02:42 AM,-,1628067640550,
2021-08-04 11:02:42 AM,-,1628067640553,
2021-08-04 11:02:42 AM,-,1628067640556,
2021-08-04 11:02:42 AM,-,1628067640560,
2021-08-04 11:02:42 AM,-,1628067640563,
2021-08-04 11:02:42 AM,-,1628067640566,
2021-08-04 11:02:42 AM,-,1628067640570,
2021-08-04 11:02:42 AM,-,1628067640573,
2021-08-04 11:02:42 AM,-,1628067640576,
2021-08-04 11:02:42 AM,-,1628067640580,
2021-08-04 11:02:42 AM,-,1628067640583,
2021-08-04 11:02:42 AM,-,1628067640586,
2021-08-04 11:02:42 AM,-,1628067640590,
2021-08-04 11:02:42 AM,-,1628067640593,
2021-08-04 11:02:42 AM,-,1628067640596,
2021-08-04 11:02:42 AM,-,1628067640600,
2021-08-04 11:02:42 AM,-,1628067640603,
2021-08-04 11:02:42 AM,-,1628067640606,
2021-08-04 11:02:42 AM,-,1628067640610,
2021-08-04 11:02:42 AM,-,1628067640613,
2021-08-04 11:02:42 AM,-,1628067640616,
2021-08-04 11:02:42 AM,-,1628067640620,
2021-08-04 11:02:42 AM,-,1628067640623,
2021-08-04 11:02:42 AM,-,1628067640626,
2021-08-04 11:02:42 AM,-,1628067640630,
2021-08-04 11:02:42 AM,-,1628067640633,
2021-08-04 11:02:42 AM,-,1628067640636,
2021-08-04 11:02:42 AM,-,1628067640640,
2021-08-04 11:02:42 AM,-,1628067640643,
2021-08-04 11:02:42 AM,-,1628067640646,
2021-08-04 11:02:42 AM,-,1628067640650,
2021-08-04 11:02:42 AM,-,1628067640653,
2021-08-04 11:02:42 AM,-,1628067640656,
2021-08-04 11:02:42 AM,-,1628067640660,
2021-08-04 11:02:42 AM,-,1628067640663,
2021-08-04 11:02:42 AM,-,1628067640666,
2021-08-04 11:02:42 AM,-,1628067640670,
2021-08-04 11:02:42 AM,-,1628067640673,
2021-08-04 11:02:42 AM,-,1628067640676,
2021-08-04 11:02:42 AM,-,1628067640680,
2021-08-04 11:02:42 AM,-,1628067640683,
2021-08-04 11:02:42 AM,-,1628067640686,
2021-08-04 11:02:42 AM,-,1628067640690,
2021-08-04 11:02:42 AM,-,1628067640693,
2021-08-04 11:02:42 AM,-,1628067640696,
2021-08-04 11:02:42 AM,-,1628067640700,
2021-08-04 11:02:42 AM,-,1628067640703,
2021-08-04 11:02:42 AM,-,1628067640706,
2021-08-04 11:02:42 AM,-,1628067640710,
2021-08-04 11:02:42 AM,-,1628067640713,
2021-08-04 11:02:42 AM,-,1628067640716,
2021-08-04 11:02:42 AM,-,1628067640720,
2021-08-04 11:02:42 AM,-,1628067640723,
2021-08-04 11:02:42 AM,-,1628067640726,
2021-08-04 11:02:42 AM,-,1628067640730,
2021-08-04 11:02:42 AM,-,1628067640733,
2021-08-04 11:02:42 AM,-,1628067640736,
2021-08-04 11:02:42 AM,-,1628067640740,
2021-08-04 11:02:42 AM,-,1628067640743,
2021-08-04 11:02:42 AM,-,1628067640746,
2021-08-04 11:02:42 AM,-,1628067640750,
2021-08-04 11:02:42 AM,-,1628067640753,
2021-08-04 11:02:42 AM,-,1628067640756,
2021-08-04 11:02:42 AM,-,1628067640760,
2021-08-04 11:02:42 AM,-,1628067640763,
2021-08-04 11:02:42 AM,-,1628067640766,
2021-08-04 11:02:42 AM,-,1628067640770,
2021-08-04 11:02:42 AM,-,1628067640773,
2021-08-04 11:02:42 AM,-,1628067640776,
2021-08-04 11:02:42 AM,-,1628067640780,
2021-08-04 11:02:42 AM,-,1628067640783,
2021-08-04 11:02:42 AM,-,1628067640786,
2021-08-04 11:02:42 AM,-,1628067640790,
2021-08-04 11:02:42 AM,-,1628067640793,
2021-08-04 11:02:42 AM,-,1628067640796,
2021-08-04 11:02:42 AM,-,1628067640800,
2021-08-04 11:02:42 AM,-,1628067640803,
2021-08-04 11:02:42 AM,-,1628067640806,
2021-08-04 11:02:42 AM,-,1628067640810,
2021-08-04 11:02:42 AM,-,1628067640813,
2021-08-04 11:02:42 AM,-,1628067640816,
2021-08-04 11:02:42 AM,-,1628067640820,
2021-08-04 11:02:42 AM,-,1628067640823,
2021-08-04 11:02:42 AM,-,1628067640826,
2021-08-04 11:02:42 AM,-,1628067640830,
2021-08-04 11:02:42 AM,-,1628067640833,
2021-08-04 11:02:42 AM,-,1628067640836,
2021-08-04 11:02:42 AM,-,1628067640840,
2021-08-04 11:02:42 AM,-,1628067640843,
2021-08-04 11:02:42 AM,-,1628067640846,
2021-08-04 11:02:42 AM,-,1628067640850,
2021-08-04 11:02:42 AM,-,1628067640853,
2021-08-04 11:02:42 AM,-,1628067640856,
2021-08-04 11:02:42 AM,-,1628067640860,
2021-08-04 11:02:42 AM,-,1628067640863,
2021-08-04 11:02:42 AM,-,1628067640866,
2021-08-04 11:02:42 AM,-,1628067640870,
2021-08-04 11:02:42 AM,-,1628067640873,
2021-08-04 11:02:42 AM,-,1628067640876,
2021-08-04 11:02:42 AM,-,1628067640880,
2021-08-04 11:02:42 AM,-,1628067640883,
2021-08-04 11:02:42 AM,-,1628067640886,
2021-08-04 11:02:42 AM,-,1628067640890,
2021-08-04 11:02:42 AM,-,1628067640893,
2021-08-04 11:02:42 AM,-,1628067640896,
2021-08-04 11:02:42 AM,-,1628067640900,
2021-08-04 11:02:42 AM,-,1628067640903,
2021-08-04 11:02:42 AM,-,1628067640906,
2021-08-04 11:02:42 AM,-,1628067640910,
2021-08-04 11:02:42 AM,-,1628067640913,
2021-08-04 11:02:42 AM,-,1628067640916,
2021-08-04 11:02:42 AM,-,1628067640920,
2021-08-04 11:02:42 AM,-,1628067640923,
2021-08-04 11:02:42 AM,-,1628067640926,
2021-08-04 11:02:42 AM,-,1628067640930,
2021-08-04 11:02:42 AM,-,1628067640933,
2021-08-04 11:02:42 AM,-,1628067640936,
2021-08-04 11:02:42 AM,-,1628067640940,
2021-08-04 11:02:42 AM,-,1628067640943,
2021-08-04 11:02:42 AM,-,1628067640946,
2021-08-04 11:02:42 AM,-,1628067640950,
2021-08-04 11:02:42 AM,-,1628067640953,
2021-08-04 11:02:42 AM,-,1628067640956,
2021-08-04 11:02:42 AM,-,1628067640960,
2021-08-04 11:02:42 AM,-,1628067640963,
2021-08-04 11:02:42 AM,-,1628067640966,
2021-08-04 11:02:42 AM,-,1628067640970,
2021-08-04 11:02:42 AM,-,1628067640973,
2021-08-04 11:02:42 AM,-,1628067640976,
2021-08-04 11:02:42 AM,-,1628067640980,
2021-08-04 11:02:42 AM,-,1628067640983,
2021-08-04 11:02:42 AM,-,1628067640986,
2021-08-04 11:02:42 AM,-,1628067640990,
2021-08-04 11:02:42 AM,-,1628067640993,
2021-08-04 11:02:42 AM,-,1628067640996,
