2021-07-28 02:56:10 PM,-,1627476851000,
2021-07-28 02:56:10 PM,-,1627476851003,
2021-07-28 02:56:10 PM,-,1627476851006,
2021-07-28 02:56:10 PM,-,1627476851010,
2021-07-28 02:56:10 PM,-,1627476851013,
2021-07-28 02:56:10 PM,-,1627476851016,
2021-07-28 02:56:10 PM,-,1627476851020,
2021-07-28 02:56:10 PM,-,1627476851023,
2021-07-28 02:56:10 PM,-,1627476851026,
2021-07-28 02:56:10 PM,-,1627476851030,
2021-07-28 02:56:10 PM,-,1627476851033,
2021-07-28 02:56:10 PM,-,1627476851036,
2021-07-28 02:56:10 PM,-,1627476851040,
2021-07-28 02:56:10 PM,-,1627476851043,
2021-07-28 02:56:10 PM,-,1627476851046,
2021-07-28 02:56:10 PM,-,1627476851050,
2021-07-28 02:56:10 PM,-,1627476851053,
2021-07-28 02:56:10 PM,-,1627476851056,
2021-07-28 02:56:10 PM,-,1627476851060,
2021-07-28 02:56:10 PM,-,1627476851063,
2021-07-28 02:56:10 PM,-,1627476851066,
2021-07-28 02:56:10 PM,-,1627476851070,
2021-07-28 02:56:10 PM,-,1627476851073,
2021-07-28 02:56:10 PM,-,1627476851076,
2021-07-28 02:56:10 PM,-,1627476851080,
2021-07-28 02:56:10 PM,-,1627476851083,
2021-07-28 02:56:10 PM,-,1627476851086,
2021-07-28 02:56:10 PM,-,1627476851090,
2021-07-28 02:56:10 PM,-,1627476851093,
2021-07-28 02:56:10 PM,-,1627476851096,
2021-07-28 02:56:10 PM,-,1627476851100,
2021-07-28 02:56:10 PM,-,1627476851103,
2021-07-28 02:56:10 PM,-,1627476851106,
2021-07-28 02:56:10 PM,-,1627476851110,
2021-07-28 02:56:10 PM,-,1627476851113,
2021-07-28 02:56:10 PM,-,1627476851116,
2021-07-28 02:56:10 PM,-,1627476851120,
2021-07-28 02:56:10 PM,-,1627476851123,
2021-07-28 02:56:10 PM,-,1627476851126,
2021-07-28 02:56:10 PM,-,1627476851130,
2021-07-28 02:56:10 PM,-,1627476851133,
2021-07-28 02:56:10 PM,-,1627476851136,
2021-07-28 02:56:10 PM,-,1627476851140,
2021-07-28 02:56:10 PM,-,1627476851143,
2021-07-28 02:56:10 PM,-,1627476851146,
2021-07-28 02:56:10 PM,-,1627476851150,
2021-07-28 02:56:10 PM,-,1627476851153,
2021-07-28 02:56:10 PM,-,1627476851156,
2021-07-28 02:56:10 PM,-,1627476851160,
2021-07-28 02:56:10 PM,-,1627476851163,
2021-07-28 02:56:10 PM,-,1627476851166,
2021-07-28 02:56:10 PM,-,1627476851170,
2021-07-28 02:56:10 PM,-,1627476851173,
2021-07-28 02:56:10 PM,-,1627476851176,
2021-07-28 02:56:10 PM,-,1627476851180,
2021-07-28 02:56:10 PM,-,1627476851183,
2021-07-28 02:56:10 PM,-,1627476851186,
2021-07-28 02:56:10 PM,-,1627476851190,
2021-07-28 02:56:10 PM,-,1627476851193,
2021-07-28 02:56:10 PM,-,1627476851196,
2021-07-28 02:56:10 PM,-,1627476851200,
2021-07-28 02:56:10 PM,-,1627476851203,
2021-07-28 02:56:10 PM,-,1627476851206,
2021-07-28 02:56:10 PM,-,1627476851210,
2021-07-28 02:56:10 PM,-,1627476851213,
2021-07-28 02:56:10 PM,-,1627476851216,
2021-07-28 02:56:10 PM,-,1627476851220,
2021-07-28 02:56:10 PM,-,1627476851223,
2021-07-28 02:56:10 PM,-,1627476851226,
2021-07-28 02:56:10 PM,-,1627476851230,
2021-07-28 02:56:10 PM,-,1627476851233,
2021-07-28 02:56:10 PM,-,1627476851236,
2021-07-28 02:56:10 PM,-,1627476851240,
2021-07-28 02:56:10 PM,-,1627476851243,
2021-07-28 02:56:10 PM,-,1627476851246,
2021-07-28 02:56:10 PM,-,1627476851250,
2021-07-28 02:56:10 PM,-,1627476851253,
2021-07-28 02:56:10 PM,-,1627476851256,
2021-07-28 02:56:10 PM,-,1627476851260,
2021-07-28 02:56:10 PM,-,1627476851263,
2021-07-28 02:56:10 PM,-,1627476851266,
2021-07-28 02:56:10 PM,-,1627476851270,
2021-07-28 02:56:10 PM,-,1627476851273,
2021-07-28 02:56:10 PM,-,1627476851276,
2021-07-28 02:56:10 PM,-,1627476851280,
2021-07-28 02:56:10 PM,-,1627476851283,
2021-07-28 02:56:10 PM,-,1627476851286,
2021-07-28 02:56:10 PM,-,1627476851290,
2021-07-28 02:56:10 PM,-,1627476851293,
2021-07-28 02:56:10 PM,-,1627476851296,
2021-07-28 02:56:10 PM,-,1627476851300,
2021-07-28 02:56:10 PM,-,1627476851303,
2021-07-28 02:56:10 PM,-,1627476851306,
2021-07-28 02:56:10 PM,-,1627476851310,
2021-07-28 02:56:10 PM,-,1627476851313,
2021-07-28 02:56:10 PM,-,1627476851316,
2021-07-28 02:56:10 PM,-,1627476851320,
2021-07-28 02:56:10 PM,-,1627476851323,
2021-07-28 02:56:10 PM,-,1627476851326,
2021-07-28 02:56:10 PM,-,1627476851330,
2021-07-28 02:56:10 PM,-,1627476851333,
2021-07-28 02:56:10 PM,-,1627476851336,
2021-07-28 02:56:10 PM,-,1627476851340,
2021-07-28 02:56:10 PM,-,1627476851343,
2021-07-28 02:56:10 PM,-,1627476851346,
2021-07-28 02:56:10 PM,-,1627476851350,
2021-07-28 02:56:10 PM,-,1627476851353,
2021-07-28 02:56:10 PM,-,1627476851356,
2021-07-28 02:56:10 PM,-,1627476851360,
2021-07-28 02:56:10 PM,-,1627476851363,
2021-07-28 02:56:10 PM,-,1627476851366,
2021-07-28 02:56:10 PM,-,1627476851370,
2021-07-28 02:56:10 PM,-,1627476851373,
2021-07-28 02:56:10 PM,-,1627476851376,
2021-07-28 02:56:10 PM,-,1627476851380,
2021-07-28 02:56:10 PM,-,1627476851383,
2021-07-28 02:56:10 PM,-,1627476851386,
2021-07-28 02:56:10 PM,-,1627476851390,
2021-07-28 02:56:10 PM,-,1627476851393,
2021-07-28 02:56:10 PM,-,1627476851396,
2021-07-28 02:56:10 PM,-,1627476851400,
2021-07-28 02:56:10 PM,-,1627476851403,
2021-07-28 02:56:10 PM,-,1627476851406,
2021-07-28 02:56:10 PM,-,1627476851410,
2021-07-28 02:56:10 PM,-,1627476851413,
2021-07-28 02:56:10 PM,-,1627476851416,
2021-07-28 02:56:10 PM,-,1627476851420,
2021-07-28 02:56:10 PM,-,1627476851423,
2021-07-28 02:56:10 PM,-,1627476851426,
2021-07-28 02:56:10 PM,-,1627476851430,
2021-07-28 02:56:10 PM,-,1627476851433,
2021-07-28 02:56:10 PM,-,1627476851436,
2021-07-28 02:56:10 PM,-,1627476851440,
2021-07-28 02:56:10 PM,-,1627476851443,
2021-07-28 02:56:10 PM,-,1627476851446,
2021-07-28 02:56:10 PM,-,1627476851450,
2021-07-28 02:56:10 PM,-,1627476851453,
2021-07-28 02:56:10 PM,-,1627476851456,
2021-07-28 02:56:10 PM,-,1627476851460,
2021-07-28 02:56:10 PM,-,1627476851463,
2021-07-28 02:56:10 PM,-,1627476851466,
2021-07-28 02:56:10 PM,-,1627476851470,
2021-07-28 02:56:10 PM,-,1627476851473,
2021-07-28 02:56:10 PM,-,1627476851476,
2021-07-28 02:56:10 PM,-,1627476851480,
2021-07-28 02:56:10 PM,-,1627476851483,
2021-07-28 02:56:10 PM,-,1627476851486,
2021-07-28 02:56:10 PM,-,1627476851490,
2021-07-28 02:56:10 PM,-,1627476851493,
2021-07-28 02:56:10 PM,-,1627476851496,
2021-07-28 02:56:10 PM,-,1627476851500,
2021-07-28 02:56:10 PM,-,1627476851503,
2021-07-28 02:56:10 PM,-,1627476851506,
2021-07-28 02:56:10 PM,-,1627476851510,
2021-07-28 02:56:10 PM,-,1627476851513,
2021-07-28 02:56:10 PM,-,1627476851516,
2021-07-28 02:56:10 PM,-,1627476851520,
2021-07-28 02:56:10 PM,-,1627476851523,
2021-07-28 02:56:10 PM,-,1627476851526,
2021-07-28 02:56:10 PM,-,1627476851530,
2021-07-28 02:56:10 PM,-,1627476851533,
2021-07-28 02:56:10 PM,-,1627476851536,
2021-07-28 02:56:10 PM,-,1627476851540,
2021-07-28 02:56:10 PM,-,1627476851543,
2021-07-28 02:56:10 PM,-,1627476851546,
2021-07-28 02:56:10 PM,-,1627476851550,
2021-07-28 02:56:10 PM,-,1627476851553,
2021-07-28 02:56:10 PM,-,1627476851556,
2021-07-28 02:56:10 PM,-,1627476851560,
2021-07-28 02:56:10 PM,-,1627476851563,
2021-07-28 02:56:10 PM,-,1627476851566,
2021-07-28 02:56:10 PM,-,1627476851570,
2021-07-28 02:56:10 PM,-,1627476851573,
2021-07-28 02:56:10 PM,-,1627476851576,
2021-07-28 02:56:10 PM,-,1627476851580,
2021-07-28 02:56:10 PM,-,1627476851583,
2021-07-28 02:56:10 PM,-,1627476851586,
2021-07-28 02:56:10 PM,-,1627476851590,
2021-07-28 02:56:10 PM,-,1627476851593,
2021-07-28 02:56:10 PM,-,1627476851596,
2021-07-28 02:56:10 PM,-,1627476851600,
2021-07-28 02:56:10 PM,-,1627476851603,
2021-07-28 02:56:10 PM,-,1627476851606,
2021-07-28 02:56:10 PM,-,1627476851610,
2021-07-28 02:56:10 PM,-,1627476851613,
2021-07-28 02:56:10 PM,-,1627476851616,
2021-07-28 02:56:10 PM,-,1627476851620,
2021-07-28 02:56:10 PM,-,1627476851623,
2021-07-28 02:56:10 PM,-,1627476851626,
2021-07-28 02:56:10 PM,-,1627476851630,
2021-07-28 02:56:10 PM,-,1627476851633,
2021-07-28 02:56:10 PM,-,1627476851636,
2021-07-28 02:56:10 PM,-,1627476851640,
2021-07-28 02:56:10 PM,-,1627476851643,
2021-07-28 02:56:10 PM,-,1627476851646,
2021-07-28 02:56:10 PM,-,1627476851650,
2021-07-28 02:56:10 PM,-,1627476851653,
2021-07-28 02:56:10 PM,-,1627476851656,
2021-07-28 02:56:10 PM,-,1627476851660,
2021-07-28 02:56:10 PM,-,1627476851663,
2021-07-28 02:56:10 PM,-,1627476851666,
2021-07-28 02:56:10 PM,-,1627476851670,
2021-07-28 02:56:10 PM,-,1627476851673,
2021-07-28 02:56:10 PM,-,1627476851676,
2021-07-28 02:56:10 PM,-,1627476851680,
2021-07-28 02:56:10 PM,-,1627476851683,
2021-07-28 02:56:10 PM,-,1627476851686,
2021-07-28 02:56:10 PM,-,1627476851690,
2021-07-28 02:56:10 PM,-,1627476851693,
2021-07-28 02:56:10 PM,-,1627476851696,
2021-07-28 02:56:10 PM,-,1627476851700,
2021-07-28 02:56:10 PM,-,1627476851703,
2021-07-28 02:56:10 PM,-,1627476851706,
2021-07-28 02:56:10 PM,-,1627476851710,
2021-07-28 02:56:10 PM,-,1627476851713,
2021-07-28 02:56:10 PM,-,1627476851716,
2021-07-28 02:56:10 PM,-,1627476851720,
2021-07-28 02:56:10 PM,-,1627476851723,
2021-07-28 02:56:10 PM,-,1627476851726,
2021-07-28 02:56:10 PM,-,1627476851730,
2021-07-28 02:56:10 PM,-,1627476851733,
2021-07-28 02:56:10 PM,-,1627476851736,
2021-07-28 02:56:10 PM,-,1627476851740,
2021-07-28 02:56:10 PM,-,1627476851743,
2021-07-28 02:56:10 PM,-,1627476851746,
2021-07-28 02:56:10 PM,-,1627476851750,
2021-07-28 02:56:10 PM,-,1627476851753,
2021-07-28 02:56:10 PM,-,1627476851756,
2021-07-28 02:56:10 PM,-,1627476851760,
2021-07-28 02:56:10 PM,-,1627476851763,
2021-07-28 02:56:10 PM,-,1627476851766,
2021-07-28 02:56:10 PM,-,1627476851770,
2021-07-28 02:56:10 PM,-,1627476851773,
2021-07-28 02:56:10 PM,-,1627476851776,
2021-07-28 02:56:10 PM,-,1627476851780,
2021-07-28 02:56:10 PM,-,1627476851783,
2021-07-28 02:56:10 PM,-,1627476851786,
2021-07-28 02:56:10 PM,-,1627476851790,
2021-07-28 02:56:10 PM,-,1627476851793,
2021-07-28 02:56:10 PM,-,1627476851796,
2021-07-28 02:56:10 PM,-,1627476851800,
2021-07-28 02:56:10 PM,-,1627476851803,
2021-07-28 02:56:10 PM,-,1627476851806,
2021-07-28 02:56:10 PM,-,1627476851810,
2021-07-28 02:56:10 PM,-,1627476851813,
2021-07-28 02:56:10 PM,-,1627476851816,
2021-07-28 02:56:10 PM,-,1627476851820,
2021-07-28 02:56:10 PM,-,1627476851823,
2021-07-28 02:56:10 PM,-,1627476851826,
2021-07-28 02:56:10 PM,-,1627476851830,
2021-07-28 02:56:10 PM,-,1627476851833,
2021-07-28 02:56:10 PM,-,1627476851836,
2021-07-28 02:56:10 PM,-,1627476851840,
2021-07-28 02:56:10 PM,-,1627476851843,
2021-07-28 02:56:10 PM,-,1627476851846,
2021-07-28 02:56:10 PM,-,1627476851850,
2021-07-28 02:56:10 PM,-,1627476851853,
2021-07-28 02:56:10 PM,-,1627476851856,
2021-07-28 02:56:10 PM,-,1627476851860,
2021-07-28 02:56:10 PM,-,1627476851863,
2021-07-28 02:56:10 PM,-,1627476851866,
2021-07-28 02:56:10 PM,-,1627476851870,
2021-07-28 02:56:10 PM,-,1627476851873,
2021-07-28 02:56:10 PM,-,1627476851876,
2021-07-28 02:56:10 PM,-,1627476851880,
2021-07-28 02:56:10 PM,-,1627476851883,
2021-07-28 02:56:10 PM,-,1627476851886,
2021-07-28 02:56:10 PM,-,1627476851890,
2021-07-28 02:56:10 PM,-,1627476851893,
2021-07-28 02:56:10 PM,-,1627476851896,
2021-07-28 02:56:10 PM,-,1627476851900,
2021-07-28 02:56:10 PM,-,1627476851903,
2021-07-28 02:56:10 PM,-,1627476851906,
2021-07-28 02:56:10 PM,-,1627476851910,
2021-07-28 02:56:10 PM,-,1627476851913,
2021-07-28 02:56:10 PM,-,1627476851916,
2021-07-28 02:56:10 PM,-,1627476851920,
2021-07-28 02:56:10 PM,-,1627476851923,
2021-07-28 02:56:10 PM,-,1627476851926,
2021-07-28 02:56:10 PM,-,1627476851930,
2021-07-28 02:56:10 PM,-,1627476851933,
2021-07-28 02:56:10 PM,-,1627476851936,
2021-07-28 02:56:10 PM,-,1627476851940,
2021-07-28 02:56:10 PM,-,1627476851943,
2021-07-28 02:56:10 PM,-,1627476851946,
2021-07-28 02:56:10 PM,-,1627476851950,
2021-07-28 02:56:10 PM,-,1627476851953,
2021-07-28 02:56:10 PM,-,1627476851956,
2021-07-28 02:56:10 PM,-,1627476851960,
2021-07-28 02:56:10 PM,-,1627476851963,
2021-07-28 02:56:10 PM,-,1627476851966,
2021-07-28 02:56:10 PM,-,1627476851970,
2021-07-28 02:56:10 PM,-,1627476851973,
2021-07-28 02:56:10 PM,-,1627476851976,
2021-07-28 02:56:10 PM,-,1627476851980,
2021-07-28 02:56:10 PM,-,1627476851983,
2021-07-28 02:56:10 PM,-,1627476851986,
2021-07-28 02:56:10 PM,-,1627476851990,
2021-07-28 02:56:10 PM,-,1627476851993,
2021-07-28 02:56:10 PM,-,1627476851996,
2021-07-28 02:56:11 PM,-,1627476851000,
2021-07-28 02:56:11 PM,-,1627476851003,
2021-07-28 02:56:11 PM,-,1627476851006,
2021-07-28 02:56:11 PM,-,1627476851010,
2021-07-28 02:56:11 PM,-,1627476851013,
2021-07-28 02:56:11 PM,-,1627476851016,
2021-07-28 02:56:11 PM,-,1627476851020,
2021-07-28 02:56:11 PM,-,1627476851023,
2021-07-28 02:56:11 PM,-,1627476851026,
2021-07-28 02:56:11 PM,-,1627476851030,
2021-07-28 02:56:11 PM,-,1627476851033,
2021-07-28 02:56:11 PM,-,1627476851036,
2021-07-28 02:56:11 PM,-,1627476851040,
2021-07-28 02:56:11 PM,-,1627476851043,
2021-07-28 02:56:11 PM,-,1627476851046,
2021-07-28 02:56:11 PM,-,1627476851050,
2021-07-28 02:56:11 PM,-,1627476851053,
2021-07-28 02:56:11 PM,-,1627476851056,
2021-07-28 02:56:11 PM,-,1627476851060,
2021-07-28 02:56:11 PM,-,1627476851063,
2021-07-28 02:56:11 PM,-,1627476851066,
2021-07-28 02:56:11 PM,-,1627476851070,
2021-07-28 02:56:11 PM,-,1627476851073,
2021-07-28 02:56:11 PM,-,1627476851076,
2021-07-28 02:56:11 PM,-,1627476851080,
2021-07-28 02:56:11 PM,-,1627476851083,
2021-07-28 02:56:11 PM,-,1627476851086,
2021-07-28 02:56:11 PM,-,1627476851090,
2021-07-28 02:56:11 PM,-,1627476851093,
2021-07-28 02:56:11 PM,-,1627476851096,
2021-07-28 02:56:11 PM,-,1627476851100,
2021-07-28 02:56:11 PM,-,1627476851103,
2021-07-28 02:56:11 PM,-,1627476851106,
2021-07-28 02:56:11 PM,-,1627476851110,
2021-07-28 02:56:11 PM,-,1627476851113,
2021-07-28 02:56:11 PM,-,1627476851116,
2021-07-28 02:56:11 PM,-,1627476851120,
2021-07-28 02:56:11 PM,-,1627476851123,
2021-07-28 02:56:11 PM,-,1627476851126,
2021-07-28 02:56:11 PM,-,1627476851130,
2021-07-28 02:56:11 PM,-,1627476851133,
2021-07-28 02:56:11 PM,-,1627476851136,
2021-07-28 02:56:11 PM,-,1627476851140,
2021-07-28 02:56:11 PM,-,1627476851143,
2021-07-28 02:56:11 PM,-,1627476851146,
2021-07-28 02:56:11 PM,-,1627476851150,
2021-07-28 02:56:11 PM,-,1627476851153,
2021-07-28 02:56:11 PM,-,1627476851156,
2021-07-28 02:56:11 PM,-,1627476851160,
2021-07-28 02:56:11 PM,-,1627476851163,
2021-07-28 02:56:11 PM,-,1627476851166,
2021-07-28 02:56:11 PM,-,1627476851170,
2021-07-28 02:56:11 PM,-,1627476851173,
2021-07-28 02:56:11 PM,-,1627476851176,
2021-07-28 02:56:11 PM,-,1627476851180,
2021-07-28 02:56:11 PM,-,1627476851183,
2021-07-28 02:56:11 PM,-,1627476851186,
2021-07-28 02:56:11 PM,-,1627476851190,
2021-07-28 02:56:11 PM,-,1627476851193,
2021-07-28 02:56:11 PM,-,1627476851196,
2021-07-28 02:56:11 PM,-,1627476851200,
2021-07-28 02:56:11 PM,-,1627476851203,
2021-07-28 02:56:11 PM,-,1627476851206,
2021-07-28 02:56:11 PM,-,1627476851210,
2021-07-28 02:56:11 PM,-,1627476851213,
2021-07-28 02:56:11 PM,-,1627476851216,
2021-07-28 02:56:11 PM,-,1627476851220,
2021-07-28 02:56:11 PM,-,1627476851223,
2021-07-28 02:56:11 PM,-,1627476851226,
2021-07-28 02:56:11 PM,-,1627476851230,
2021-07-28 02:56:11 PM,-,1627476851233,
2021-07-28 02:56:11 PM,-,1627476851236,
2021-07-28 02:56:11 PM,-,1627476851240,
2021-07-28 02:56:11 PM,-,1627476851243,
2021-07-28 02:56:11 PM,-,1627476851246,
2021-07-28 02:56:11 PM,-,1627476851250,
2021-07-28 02:56:11 PM,-,1627476851253,
2021-07-28 02:56:11 PM,-,1627476851256,
2021-07-28 02:56:11 PM,-,1627476851260,
2021-07-28 02:56:11 PM,-,1627476851263,
2021-07-28 02:56:11 PM,-,1627476851266,
2021-07-28 02:56:11 PM,-,1627476851270,
2021-07-28 02:56:11 PM,-,1627476851273,
2021-07-28 02:56:11 PM,-,1627476851276,
2021-07-28 02:56:11 PM,-,1627476851280,
2021-07-28 02:56:11 PM,-,1627476851283,
2021-07-28 02:56:11 PM,-,1627476851286,
2021-07-28 02:56:11 PM,-,1627476851290,
2021-07-28 02:56:11 PM,-,1627476851293,
2021-07-28 02:56:11 PM,-,1627476851296,
2021-07-28 02:56:11 PM,-,1627476851300,
2021-07-28 02:56:11 PM,-,1627476851303,
2021-07-28 02:56:11 PM,-,1627476851306,
2021-07-28 02:56:11 PM,-,1627476851310,
2021-07-28 02:56:11 PM,-,1627476851313,
2021-07-28 02:56:11 PM,-,1627476851316,
2021-07-28 02:56:11 PM,-,1627476851320,
2021-07-28 02:56:11 PM,-,1627476851323,
2021-07-28 02:56:11 PM,-,1627476851326,
2021-07-28 02:56:11 PM,-,1627476851330,
2021-07-28 02:56:11 PM,-,1627476851333,
2021-07-28 02:56:11 PM,-,1627476851336,
2021-07-28 02:56:11 PM,-,1627476851340,
2021-07-28 02:56:11 PM,-,1627476851343,
2021-07-28 02:56:11 PM,-,1627476851346,
2021-07-28 02:56:11 PM,-,1627476851350,
2021-07-28 02:56:11 PM,-,1627476851353,
2021-07-28 02:56:11 PM,-,1627476851356,
2021-07-28 02:56:11 PM,-,1627476851360,
2021-07-28 02:56:11 PM,-,1627476851363,
2021-07-28 02:56:11 PM,-,1627476851366,
2021-07-28 02:56:11 PM,-,1627476851370,
2021-07-28 02:56:11 PM,-,1627476851373,
2021-07-28 02:56:11 PM,-,1627476851376,
2021-07-28 02:56:11 PM,-,1627476851380,
2021-07-28 02:56:11 PM,-,1627476851383,
2021-07-28 02:56:11 PM,-,1627476851386,
2021-07-28 02:56:11 PM,-,1627476851390,
2021-07-28 02:56:11 PM,-,1627476851393,
2021-07-28 02:56:11 PM,-,1627476851396,
2021-07-28 02:56:11 PM,-,1627476851400,
2021-07-28 02:56:11 PM,-,1627476851403,
2021-07-28 02:56:11 PM,-,1627476851406,
2021-07-28 02:56:11 PM,-,1627476851410,
2021-07-28 02:56:11 PM,-,1627476851413,
2021-07-28 02:56:11 PM,-,1627476851416,
2021-07-28 02:56:11 PM,-,1627476851420,
2021-07-28 02:56:11 PM,-,1627476851423,
2021-07-28 02:56:11 PM,-,1627476851426,
2021-07-28 02:56:11 PM,-,1627476851430,
2021-07-28 02:56:11 PM,-,1627476851433,
2021-07-28 02:56:11 PM,-,1627476851436,
2021-07-28 02:56:11 PM,-,1627476851440,
2021-07-28 02:56:11 PM,-,1627476851443,
2021-07-28 02:56:11 PM,-,1627476851446,
2021-07-28 02:56:11 PM,-,1627476851450,
2021-07-28 02:56:11 PM,-,1627476851453,
2021-07-28 02:56:11 PM,-,1627476851456,
2021-07-28 02:56:11 PM,-,1627476851460,
2021-07-28 02:56:11 PM,-,1627476851463,
2021-07-28 02:56:11 PM,-,1627476851466,
2021-07-28 02:56:11 PM,-,1627476851470,
2021-07-28 02:56:11 PM,-,1627476851473,
2021-07-28 02:56:11 PM,-,1627476851476,
2021-07-28 02:56:11 PM,-,1627476851480,
2021-07-28 02:56:11 PM,-,1627476851483,
2021-07-28 02:56:11 PM,-,1627476851486,
2021-07-28 02:56:11 PM,-,1627476851490,
2021-07-28 02:56:11 PM,-,1627476851493,
2021-07-28 02:56:11 PM,-,1627476851496,
2021-07-28 02:56:11 PM,-,1627476851500,
2021-07-28 02:56:11 PM,-,1627476851503,
2021-07-28 02:56:11 PM,-,1627476851506,
2021-07-28 02:56:11 PM,-,1627476851510,
2021-07-28 02:56:11 PM,-,1627476851513,
2021-07-28 02:56:11 PM,-,1627476851516,
2021-07-28 02:56:11 PM,-,1627476851520,
2021-07-28 02:56:11 PM,-,1627476851523,
2021-07-28 02:56:11 PM,-,1627476851526,
2021-07-28 02:56:11 PM,-,1627476851530,
2021-07-28 02:56:11 PM,-,1627476851533,
2021-07-28 02:56:11 PM,-,1627476851536,
2021-07-28 02:56:11 PM,-,1627476851540,
2021-07-28 02:56:11 PM,-,1627476851543,
2021-07-28 02:56:11 PM,-,1627476851546,
2021-07-28 02:56:11 PM,-,1627476851550,
2021-07-28 02:56:11 PM,-,1627476851553,
2021-07-28 02:56:11 PM,-,1627476851556,
2021-07-28 02:56:11 PM,-,1627476851560,
2021-07-28 02:56:11 PM,-,1627476851563,
2021-07-28 02:56:11 PM,-,1627476851566,
2021-07-28 02:56:11 PM,-,1627476851570,
2021-07-28 02:56:11 PM,-,1627476851573,
2021-07-28 02:56:11 PM,-,1627476851576,
2021-07-28 02:56:11 PM,-,1627476851580,
2021-07-28 02:56:11 PM,-,1627476851583,
2021-07-28 02:56:11 PM,-,1627476851586,
2021-07-28 02:56:11 PM,-,1627476851590,
2021-07-28 02:56:11 PM,-,1627476851593,
2021-07-28 02:56:11 PM,-,1627476851596,
2021-07-28 02:56:11 PM,-,1627476851600,
2021-07-28 02:56:11 PM,-,1627476851603,
2021-07-28 02:56:11 PM,-,1627476851606,
2021-07-28 02:56:11 PM,-,1627476851610,
2021-07-28 02:56:11 PM,-,1627476851613,
2021-07-28 02:56:11 PM,-,1627476851616,
2021-07-28 02:56:11 PM,-,1627476851620,
2021-07-28 02:56:11 PM,-,1627476851623,
2021-07-28 02:56:11 PM,-,1627476851626,
2021-07-28 02:56:11 PM,-,1627476851630,
2021-07-28 02:56:11 PM,-,1627476851633,
2021-07-28 02:56:11 PM,-,1627476851636,
2021-07-28 02:56:11 PM,-,1627476851640,
2021-07-28 02:56:11 PM,-,1627476851643,
2021-07-28 02:56:11 PM,-,1627476851646,
2021-07-28 02:56:11 PM,-,1627476851650,
2021-07-28 02:56:11 PM,-,1627476851653,
2021-07-28 02:56:11 PM,-,1627476851656,
2021-07-28 02:56:11 PM,-,1627476851660,
2021-07-28 02:56:11 PM,-,1627476851663,
2021-07-28 02:56:11 PM,-,1627476851666,
2021-07-28 02:56:11 PM,-,1627476851670,
2021-07-28 02:56:11 PM,-,1627476851673,
2021-07-28 02:56:11 PM,-,1627476851676,
2021-07-28 02:56:11 PM,-,1627476851680,
2021-07-28 02:56:11 PM,-,1627476851683,
2021-07-28 02:56:11 PM,-,1627476851686,
2021-07-28 02:56:11 PM,-,1627476851690,
2021-07-28 02:56:11 PM,-,1627476851693,
2021-07-28 02:56:11 PM,-,1627476851696,
2021-07-28 02:56:11 PM,-,1627476851700,
2021-07-28 02:56:11 PM,-,1627476851703,
2021-07-28 02:56:11 PM,-,1627476851706,
2021-07-28 02:56:11 PM,-,1627476851710,
2021-07-28 02:56:11 PM,-,1627476851713,
2021-07-28 02:56:11 PM,-,1627476851716,
2021-07-28 02:56:11 PM,-,1627476851720,
2021-07-28 02:56:11 PM,-,1627476851723,
2021-07-28 02:56:11 PM,-,1627476851726,
2021-07-28 02:56:11 PM,-,1627476851730,
2021-07-28 02:56:11 PM,-,1627476851733,
2021-07-28 02:56:11 PM,-,1627476851736,
2021-07-28 02:56:11 PM,-,1627476851740,
2021-07-28 02:56:11 PM,-,1627476851743,
2021-07-28 02:56:11 PM,-,1627476851746,
2021-07-28 02:56:11 PM,-,1627476851750,
2021-07-28 02:56:11 PM,-,1627476851753,
2021-07-28 02:56:11 PM,-,1627476851756,
2021-07-28 02:56:11 PM,-,1627476851760,
2021-07-28 02:56:11 PM,-,1627476851763,
2021-07-28 02:56:11 PM,-,1627476851766,
2021-07-28 02:56:11 PM,-,1627476851770,
2021-07-28 02:56:11 PM,-,1627476851773,
2021-07-28 02:56:11 PM,-,1627476851776,
2021-07-28 02:56:11 PM,-,1627476851780,
2021-07-28 02:56:11 PM,-,1627476851783,
2021-07-28 02:56:11 PM,-,1627476851786,
2021-07-28 02:56:11 PM,-,1627476851790,
2021-07-28 02:56:11 PM,-,1627476851793,
2021-07-28 02:56:11 PM,-,1627476851796,
2021-07-28 02:56:11 PM,-,1627476851800,
2021-07-28 02:56:11 PM,-,1627476851803,
2021-07-28 02:56:11 PM,-,1627476851806,
2021-07-28 02:56:11 PM,-,1627476851810,
2021-07-28 02:56:11 PM,-,1627476851813,
2021-07-28 02:56:11 PM,-,1627476851816,
2021-07-28 02:56:11 PM,-,1627476851820,
2021-07-28 02:56:11 PM,-,1627476851823,
2021-07-28 02:56:11 PM,-,1627476851826,
2021-07-28 02:56:11 PM,-,1627476851830,
2021-07-28 02:56:11 PM,-,1627476851833,
2021-07-28 02:56:11 PM,-,1627476851836,
2021-07-28 02:56:11 PM,-,1627476851840,
2021-07-28 02:56:11 PM,-,1627476851843,
2021-07-28 02:56:11 PM,-,1627476851846,
2021-07-28 02:56:11 PM,-,1627476851850,
2021-07-28 02:56:11 PM,-,1627476851853,
2021-07-28 02:56:11 PM,-,1627476851856,
2021-07-28 02:56:11 PM,-,1627476851860,
2021-07-28 02:56:11 PM,-,1627476851863,
2021-07-28 02:56:11 PM,-,1627476851866,
2021-07-28 02:56:11 PM,-,1627476851870,
2021-07-28 02:56:11 PM,-,1627476851873,
2021-07-28 02:56:11 PM,-,1627476851876,
2021-07-28 02:56:11 PM,-,1627476851880,
2021-07-28 02:56:11 PM,-,1627476851883,
2021-07-28 02:56:11 PM,-,1627476851886,
2021-07-28 02:56:11 PM,-,1627476851890,
2021-07-28 02:56:11 PM,-,1627476851893,
2021-07-28 02:56:11 PM,-,1627476851896,
2021-07-28 02:56:11 PM,-,1627476851900,
2021-07-28 02:56:11 PM,-,1627476851903,
2021-07-28 02:56:11 PM,-,1627476851906,
2021-07-28 02:56:11 PM,-,1627476851910,
2021-07-28 02:56:11 PM,-,1627476851913,
2021-07-28 02:56:11 PM,-,1627476851916,
2021-07-28 02:56:11 PM,-,1627476851920,
2021-07-28 02:56:11 PM,-,1627476851923,
2021-07-28 02:56:11 PM,-,1627476851926,
2021-07-28 02:56:11 PM,-,1627476851930,
2021-07-28 02:56:11 PM,-,1627476851933,
2021-07-28 02:56:11 PM,-,1627476851936,
2021-07-28 02:56:11 PM,-,1627476851940,
2021-07-28 02:56:11 PM,-,1627476851943,
2021-07-28 02:56:11 PM,-,1627476851946,
2021-07-28 02:56:11 PM,-,1627476851950,
2021-07-28 02:56:11 PM,-,1627476851953,
2021-07-28 02:56:11 PM,-,1627476851956,
2021-07-28 02:56:11 PM,-,1627476851960,
2021-07-28 02:56:11 PM,-,1627476851963,
2021-07-28 02:56:11 PM,-,1627476851966,
2021-07-28 02:56:11 PM,-,1627476851970,
2021-07-28 02:56:11 PM,-,1627476851973,
2021-07-28 02:56:11 PM,-,1627476851976,
2021-07-28 02:56:11 PM,-,1627476851980,
2021-07-28 02:56:11 PM,-,1627476851983,
2021-07-28 02:56:11 PM,-,1627476851986,
2021-07-28 02:56:11 PM,-,1627476851990,
2021-07-28 02:56:11 PM,-,1627476851993,
2021-07-28 02:56:11 PM,-,1627476851996,
2021-07-28 02:56:12 PM,-,1627476852000,
2021-07-28 02:56:12 PM,-,1627476852003,
2021-07-28 02:56:12 PM,-,1627476852006,
2021-07-28 02:56:12 PM,-,1627476852010,
2021-07-28 02:56:12 PM,-,1627476852013,
2021-07-28 02:56:12 PM,-,1627476852016,
2021-07-28 02:56:12 PM,-,1627476852020,
2021-07-28 02:56:12 PM,-,1627476852023,
2021-07-28 02:56:12 PM,-,1627476852026,
2021-07-28 02:56:12 PM,-,1627476852030,
2021-07-28 02:56:12 PM,-,1627476852033,
2021-07-28 02:56:12 PM,-,1627476852036,
2021-07-28 02:56:12 PM,-,1627476852040,
2021-07-28 02:56:12 PM,-,1627476852043,
2021-07-28 02:56:12 PM,-,1627476852046,
2021-07-28 02:56:12 PM,-,1627476852050,
2021-07-28 02:56:12 PM,-,1627476852053,
2021-07-28 02:56:12 PM,-,1627476852056,
2021-07-28 02:56:12 PM,-,1627476852060,
2021-07-28 02:56:12 PM,-,1627476852063,
2021-07-28 02:56:12 PM,-,1627476852066,
2021-07-28 02:56:12 PM,-,1627476852070,
2021-07-28 02:56:12 PM,-,1627476852073,
2021-07-28 02:56:12 PM,-,1627476852076,
2021-07-28 02:56:12 PM,-,1627476852080,
2021-07-28 02:56:12 PM,-,1627476852083,
2021-07-28 02:56:12 PM,-,1627476852086,
2021-07-28 02:56:12 PM,-,1627476852090,
2021-07-28 02:56:12 PM,-,1627476852093,
2021-07-28 02:56:12 PM,-,1627476852096,
2021-07-28 02:56:12 PM,-,1627476852100,
2021-07-28 02:56:12 PM,-,1627476852103,
2021-07-28 02:56:12 PM,-,1627476852106,
2021-07-28 02:56:12 PM,-,1627476852110,
2021-07-28 02:56:12 PM,-,1627476852113,
2021-07-28 02:56:12 PM,-,1627476852116,
2021-07-28 02:56:12 PM,-,1627476852120,
2021-07-28 02:56:12 PM,-,1627476852123,
2021-07-28 02:56:12 PM,-,1627476852126,
2021-07-28 02:56:12 PM,-,1627476852130,
2021-07-28 02:56:12 PM,-,1627476852133,
2021-07-28 02:56:12 PM,-,1627476852136,
2021-07-28 02:56:12 PM,-,1627476852140,
2021-07-28 02:56:12 PM,-,1627476852143,
2021-07-28 02:56:12 PM,-,1627476852146,
2021-07-28 02:56:12 PM,-,1627476852150,
2021-07-28 02:56:12 PM,-,1627476852153,
2021-07-28 02:56:12 PM,-,1627476852156,
2021-07-28 02:56:12 PM,-,1627476852160,
2021-07-28 02:56:12 PM,-,1627476852163,
2021-07-28 02:56:12 PM,-,1627476852166,
2021-07-28 02:56:12 PM,-,1627476852170,
2021-07-28 02:56:12 PM,-,1627476852173,
2021-07-28 02:56:12 PM,-,1627476852176,
2021-07-28 02:56:12 PM,-,1627476852180,
2021-07-28 02:56:12 PM,-,1627476852183,
2021-07-28 02:56:12 PM,-,1627476852186,
2021-07-28 02:56:12 PM,-,1627476852190,
2021-07-28 02:56:12 PM,-,1627476852193,
2021-07-28 02:56:12 PM,-,1627476852196,
2021-07-28 02:56:12 PM,-,1627476852200,
2021-07-28 02:56:12 PM,-,1627476852203,
2021-07-28 02:56:12 PM,-,1627476852206,
2021-07-28 02:56:12 PM,-,1627476852210,
2021-07-28 02:56:12 PM,-,1627476852213,
2021-07-28 02:56:12 PM,-,1627476852216,
2021-07-28 02:56:12 PM,-,1627476852220,
2021-07-28 02:56:12 PM,-,1627476852223,
2021-07-28 02:56:12 PM,-,1627476852226,
2021-07-28 02:56:12 PM,-,1627476852230,
2021-07-28 02:56:12 PM,-,1627476852233,
2021-07-28 02:56:12 PM,-,1627476852236,
2021-07-28 02:56:12 PM,-,1627476852240,
2021-07-28 02:56:12 PM,-,1627476852243,
2021-07-28 02:56:12 PM,-,1627476852246,
2021-07-28 02:56:12 PM,-,1627476852250,
2021-07-28 02:56:12 PM,-,1627476852253,
2021-07-28 02:56:12 PM,-,1627476852256,
2021-07-28 02:56:12 PM,-,1627476852260,
2021-07-28 02:56:12 PM,-,1627476852263,
2021-07-28 02:56:12 PM,-,1627476852266,
2021-07-28 02:56:12 PM,-,1627476852270,
2021-07-28 02:56:12 PM,-,1627476852273,
2021-07-28 02:56:12 PM,-,1627476852276,
2021-07-28 02:56:12 PM,-,1627476852280,
2021-07-28 02:56:12 PM,-,1627476852283,
2021-07-28 02:56:12 PM,-,1627476852286,
2021-07-28 02:56:12 PM,-,1627476852290,
2021-07-28 02:56:12 PM,-,1627476852293,
2021-07-28 02:56:12 PM,-,1627476852296,
2021-07-28 02:56:12 PM,-,1627476852300,
2021-07-28 02:56:12 PM,-,1627476852303,
2021-07-28 02:56:12 PM,-,1627476852306,
2021-07-28 02:56:12 PM,-,1627476852310,
2021-07-28 02:56:12 PM,-,1627476852313,
2021-07-28 02:56:12 PM,-,1627476852316,
2021-07-28 02:56:12 PM,-,1627476852320,
2021-07-28 02:56:12 PM,-,1627476852323,
2021-07-28 02:56:12 PM,-,1627476852326,
2021-07-28 02:56:12 PM,-,1627476852330,
2021-07-28 02:56:12 PM,-,1627476852333,
2021-07-28 02:56:12 PM,-,1627476852336,
2021-07-28 02:56:12 PM,-,1627476852340,
2021-07-28 02:56:12 PM,-,1627476852343,
2021-07-28 02:56:12 PM,-,1627476852346,
2021-07-28 02:56:12 PM,-,1627476852350,
2021-07-28 02:56:12 PM,-,1627476852353,
2021-07-28 02:56:12 PM,-,1627476852356,
2021-07-28 02:56:12 PM,-,1627476852360,
2021-07-28 02:56:12 PM,-,1627476852363,
2021-07-28 02:56:12 PM,-,1627476852366,
2021-07-28 02:56:12 PM,-,1627476852370,
2021-07-28 02:56:12 PM,-,1627476852373,
2021-07-28 02:56:12 PM,-,1627476852376,
2021-07-28 02:56:12 PM,-,1627476852380,
2021-07-28 02:56:12 PM,-,1627476852383,
2021-07-28 02:56:12 PM,-,1627476852386,
2021-07-28 02:56:12 PM,-,1627476852390,
2021-07-28 02:56:12 PM,-,1627476852393,
2021-07-28 02:56:12 PM,-,1627476852396,
2021-07-28 02:56:12 PM,-,1627476852400,
2021-07-28 02:56:12 PM,-,1627476852403,
2021-07-28 02:56:12 PM,-,1627476852406,
2021-07-28 02:56:12 PM,-,1627476852410,
2021-07-28 02:56:12 PM,-,1627476852413,
2021-07-28 02:56:12 PM,-,1627476852416,
2021-07-28 02:56:12 PM,-,1627476852420,
2021-07-28 02:56:12 PM,-,1627476852423,
2021-07-28 02:56:12 PM,-,1627476852426,
2021-07-28 02:56:12 PM,-,1627476852430,
2021-07-28 02:56:12 PM,-,1627476852433,
2021-07-28 02:56:12 PM,-,1627476852436,
2021-07-28 02:56:12 PM,-,1627476852440,
2021-07-28 02:56:12 PM,-,1627476852443,
2021-07-28 02:56:12 PM,-,1627476852446,
2021-07-28 02:56:12 PM,-,1627476852450,
2021-07-28 02:56:12 PM,-,1627476852453,
2021-07-28 02:56:12 PM,-,1627476852456,
2021-07-28 02:56:12 PM,-,1627476852460,
2021-07-28 02:56:12 PM,-,1627476852463,
2021-07-28 02:56:12 PM,-,1627476852466,
2021-07-28 02:56:12 PM,-,1627476852470,
2021-07-28 02:56:12 PM,-,1627476852473,
2021-07-28 02:56:12 PM,-,1627476852476,
2021-07-28 02:56:12 PM,-,1627476852480,
2021-07-28 02:56:12 PM,-,1627476852483,
2021-07-28 02:56:12 PM,-,1627476852486,
2021-07-28 02:56:12 PM,-,1627476852490,
2021-07-28 02:56:12 PM,-,1627476852493,
2021-07-28 02:56:12 PM,-,1627476852496,
2021-07-28 02:56:12 PM,-,1627476852500,
2021-07-28 02:56:12 PM,-,1627476852503,
2021-07-28 02:56:12 PM,-,1627476852506,
2021-07-28 02:56:12 PM,-,1627476852510,
2021-07-28 02:56:12 PM,-,1627476852513,
2021-07-28 02:56:12 PM,-,1627476852516,
2021-07-28 02:56:12 PM,-,1627476852520,
2021-07-28 02:56:12 PM,-,1627476852523,
2021-07-28 02:56:12 PM,-,1627476852526,
2021-07-28 02:56:12 PM,-,1627476852530,
2021-07-28 02:56:12 PM,-,1627476852533,
2021-07-28 02:56:12 PM,-,1627476852536,
2021-07-28 02:56:12 PM,-,1627476852540,
2021-07-28 02:56:12 PM,-,1627476852543,
2021-07-28 02:56:12 PM,-,1627476852546,
2021-07-28 02:56:12 PM,-,1627476852550,
2021-07-28 02:56:12 PM,-,1627476852553,
2021-07-28 02:56:12 PM,-,1627476852556,
2021-07-28 02:56:12 PM,-,1627476852560,
2021-07-28 02:56:12 PM,-,1627476852563,
2021-07-28 02:56:12 PM,-,1627476852566,
2021-07-28 02:56:12 PM,-,1627476852570,
2021-07-28 02:56:12 PM,-,1627476852573,
2021-07-28 02:56:12 PM,-,1627476852576,
2021-07-28 02:56:12 PM,-,1627476852580,
2021-07-28 02:56:12 PM,-,1627476852583,
2021-07-28 02:56:12 PM,-,1627476852586,
2021-07-28 02:56:12 PM,-,1627476852590,
2021-07-28 02:56:12 PM,-,1627476852593,
2021-07-28 02:56:12 PM,-,1627476852596,
2021-07-28 02:56:12 PM,-,1627476852600,
2021-07-28 02:56:12 PM,-,1627476852603,
2021-07-28 02:56:12 PM,-,1627476852606,
2021-07-28 02:56:12 PM,-,1627476852610,
2021-07-28 02:56:12 PM,-,1627476852613,
2021-07-28 02:56:12 PM,-,1627476852616,
2021-07-28 02:56:12 PM,-,1627476852620,
2021-07-28 02:56:12 PM,-,1627476852623,
2021-07-28 02:56:12 PM,-,1627476852626,
2021-07-28 02:56:12 PM,-,1627476852630,
2021-07-28 02:56:12 PM,-,1627476852633,
2021-07-28 02:56:12 PM,-,1627476852636,
2021-07-28 02:56:12 PM,-,1627476852640,
2021-07-28 02:56:12 PM,-,1627476852643,
2021-07-28 02:56:12 PM,-,1627476852646,
2021-07-28 02:56:12 PM,-,1627476852650,
2021-07-28 02:56:12 PM,-,1627476852653,
2021-07-28 02:56:12 PM,-,1627476852656,
2021-07-28 02:56:12 PM,-,1627476852660,
2021-07-28 02:56:12 PM,-,1627476852663,
2021-07-28 02:56:12 PM,-,1627476852666,
2021-07-28 02:56:12 PM,-,1627476852670,
2021-07-28 02:56:12 PM,-,1627476852673,
2021-07-28 02:56:12 PM,-,1627476852676,
2021-07-28 02:56:12 PM,-,1627476852680,
2021-07-28 02:56:12 PM,-,1627476852683,
2021-07-28 02:56:12 PM,-,1627476852686,
2021-07-28 02:56:12 PM,-,1627476852690,
2021-07-28 02:56:12 PM,-,1627476852693,
2021-07-28 02:56:12 PM,-,1627476852696,
2021-07-28 02:56:12 PM,-,1627476852700,
2021-07-28 02:56:12 PM,-,1627476852703,
2021-07-28 02:56:12 PM,-,1627476852706,
2021-07-28 02:56:12 PM,-,1627476852710,
2021-07-28 02:56:12 PM,-,1627476852713,
2021-07-28 02:56:12 PM,-,1627476852716,
2021-07-28 02:56:12 PM,-,1627476852720,
2021-07-28 02:56:12 PM,-,1627476852723,
2021-07-28 02:56:12 PM,-,1627476852726,
2021-07-28 02:56:12 PM,-,1627476852730,
2021-07-28 02:56:12 PM,-,1627476852733,
2021-07-28 02:56:12 PM,-,1627476852736,
2021-07-28 02:56:12 PM,-,1627476852740,
2021-07-28 02:56:12 PM,-,1627476852743,
2021-07-28 02:56:12 PM,-,1627476852746,
2021-07-28 02:56:12 PM,-,1627476852750,
2021-07-28 02:56:12 PM,-,1627476852753,
2021-07-28 02:56:12 PM,-,1627476852756,
2021-07-28 02:56:12 PM,-,1627476852760,
2021-07-28 02:56:12 PM,-,1627476852763,
2021-07-28 02:56:12 PM,-,1627476852766,
2021-07-28 02:56:12 PM,-,1627476852770,
2021-07-28 02:56:12 PM,-,1627476852773,
2021-07-28 02:56:12 PM,-,1627476852776,
2021-07-28 02:56:12 PM,-,1627476852780,
2021-07-28 02:56:12 PM,-,1627476852783,
2021-07-28 02:56:12 PM,-,1627476852786,
2021-07-28 02:56:12 PM,-,1627476852790,
2021-07-28 02:56:12 PM,-,1627476852793,
2021-07-28 02:56:12 PM,-,1627476852796,
2021-07-28 02:56:12 PM,-,1627476852800,
2021-07-28 02:56:12 PM,-,1627476852803,
2021-07-28 02:56:12 PM,-,1627476852806,
2021-07-28 02:56:12 PM,-,1627476852810,
2021-07-28 02:56:12 PM,-,1627476852813,
2021-07-28 02:56:12 PM,-,1627476852816,
2021-07-28 02:56:12 PM,-,1627476852820,
2021-07-28 02:56:12 PM,-,1627476852823,
2021-07-28 02:56:12 PM,-,1627476852826,
2021-07-28 02:56:12 PM,-,1627476852830,
2021-07-28 02:56:12 PM,-,1627476852833,
2021-07-28 02:56:12 PM,-,1627476852836,
2021-07-28 02:56:12 PM,-,1627476852840,
2021-07-28 02:56:12 PM,-,1627476852843,
2021-07-28 02:56:12 PM,-,1627476852846,
2021-07-28 02:56:12 PM,-,1627476852850,
2021-07-28 02:56:12 PM,-,1627476852853,
2021-07-28 02:56:12 PM,-,1627476852856,
2021-07-28 02:56:12 PM,-,1627476852860,
2021-07-28 02:56:12 PM,-,1627476852863,
2021-07-28 02:56:12 PM,-,1627476852866,
2021-07-28 02:56:12 PM,-,1627476852870,
2021-07-28 02:56:12 PM,-,1627476852873,
2021-07-28 02:56:12 PM,-,1627476852876,
2021-07-28 02:56:12 PM,-,1627476852880,
2021-07-28 02:56:12 PM,-,1627476852883,
2021-07-28 02:56:12 PM,-,1627476852886,
2021-07-28 02:56:12 PM,-,1627476852890,
2021-07-28 02:56:12 PM,-,1627476852893,
2021-07-28 02:56:12 PM,-,1627476852896,
2021-07-28 02:56:12 PM,-,1627476852900,
2021-07-28 02:56:12 PM,-,1627476852903,
2021-07-28 02:56:12 PM,-,1627476852906,
2021-07-28 02:56:12 PM,-,1627476852910,
2021-07-28 02:56:12 PM,-,1627476852913,
2021-07-28 02:56:12 PM,-,1627476852916,
2021-07-28 02:56:12 PM,-,1627476852920,
2021-07-28 02:56:12 PM,-,1627476852923,
2021-07-28 02:56:12 PM,-,1627476852926,
2021-07-28 02:56:12 PM,-,1627476852930,
2021-07-28 02:56:12 PM,-,1627476852933,
2021-07-28 02:56:12 PM,-,1627476852936,
2021-07-28 02:56:12 PM,-,1627476852940,
2021-07-28 02:56:12 PM,-,1627476852943,
2021-07-28 02:56:12 PM,-,1627476852946,
2021-07-28 02:56:12 PM,-,1627476852950,
2021-07-28 02:56:12 PM,-,1627476852953,
2021-07-28 02:56:12 PM,-,1627476852956,
2021-07-28 02:56:12 PM,-,1627476852960,
2021-07-28 02:56:12 PM,-,1627476852963,
2021-07-28 02:56:12 PM,-,1627476852966,
2021-07-28 02:56:12 PM,-,1627476852970,
2021-07-28 02:56:12 PM,-,1627476852973,
2021-07-28 02:56:12 PM,-,1627476852976,
2021-07-28 02:56:12 PM,-,1627476852980,
2021-07-28 02:56:12 PM,-,1627476852983,
2021-07-28 02:56:12 PM,-,1627476852986,
2021-07-28 02:56:12 PM,-,1627476852990,
2021-07-28 02:56:12 PM,-,1627476852993,
2021-07-28 02:56:12 PM,-,1627476852996,
2021-07-28 02:56:13 PM,-,1627476860000,
2021-07-28 02:56:13 PM,-,1627476860003,
2021-07-28 02:56:13 PM,-,1627476860006,
2021-07-28 02:56:13 PM,-,1627476860010,
2021-07-28 02:56:13 PM,-,1627476860013,
2021-07-28 02:56:13 PM,-,1627476860016,
2021-07-28 02:56:13 PM,-,1627476860020,
2021-07-28 02:56:13 PM,-,1627476860023,
2021-07-28 02:56:13 PM,-,1627476860026,
2021-07-28 02:56:13 PM,-,1627476860030,
2021-07-28 02:56:13 PM,-,1627476860033,
2021-07-28 02:56:13 PM,-,1627476860036,
2021-07-28 02:56:13 PM,-,1627476860040,
2021-07-28 02:56:13 PM,-,1627476860043,
2021-07-28 02:56:13 PM,-,1627476860046,
2021-07-28 02:56:13 PM,-,1627476860050,
2021-07-28 02:56:13 PM,-,1627476860053,
2021-07-28 02:56:13 PM,-,1627476860056,
2021-07-28 02:56:13 PM,-,1627476860060,
2021-07-28 02:56:13 PM,-,1627476860063,
2021-07-28 02:56:13 PM,-,1627476860066,
2021-07-28 02:56:13 PM,-,1627476860070,
2021-07-28 02:56:13 PM,-,1627476860073,
2021-07-28 02:56:13 PM,-,1627476860076,
2021-07-28 02:56:13 PM,-,1627476860080,
2021-07-28 02:56:13 PM,-,1627476860083,
2021-07-28 02:56:13 PM,-,1627476860086,
2021-07-28 02:56:13 PM,-,1627476860090,
2021-07-28 02:56:13 PM,-,1627476860093,
2021-07-28 02:56:13 PM,-,1627476860096,
2021-07-28 02:56:13 PM,-,1627476860100,
2021-07-28 02:56:13 PM,-,1627476860103,
2021-07-28 02:56:13 PM,-,1627476860106,
2021-07-28 02:56:13 PM,-,1627476860110,
2021-07-28 02:56:13 PM,-,1627476860113,
2021-07-28 02:56:13 PM,-,1627476860116,
2021-07-28 02:56:13 PM,-,1627476860120,
2021-07-28 02:56:13 PM,-,1627476860123,
2021-07-28 02:56:13 PM,-,1627476860126,
2021-07-28 02:56:13 PM,-,1627476860130,
2021-07-28 02:56:13 PM,-,1627476860133,
2021-07-28 02:56:13 PM,-,1627476860136,
2021-07-28 02:56:13 PM,-,1627476860140,
2021-07-28 02:56:13 PM,-,1627476860143,
2021-07-28 02:56:13 PM,-,1627476860146,
2021-07-28 02:56:13 PM,-,1627476860150,
2021-07-28 02:56:13 PM,-,1627476860153,
2021-07-28 02:56:13 PM,-,1627476860156,
2021-07-28 02:56:13 PM,-,1627476860160,
2021-07-28 02:56:13 PM,-,1627476860163,
2021-07-28 02:56:13 PM,-,1627476860166,
2021-07-28 02:56:13 PM,-,1627476860170,
2021-07-28 02:56:13 PM,-,1627476860173,
2021-07-28 02:56:13 PM,-,1627476860176,
2021-07-28 02:56:13 PM,-,1627476860180,
2021-07-28 02:56:13 PM,-,1627476860183,
2021-07-28 02:56:13 PM,-,1627476860186,
2021-07-28 02:56:13 PM,-,1627476860190,
2021-07-28 02:56:13 PM,-,1627476860193,
2021-07-28 02:56:13 PM,-,1627476860196,
2021-07-28 02:56:13 PM,-,1627476860200,
2021-07-28 02:56:13 PM,-,1627476860203,
2021-07-28 02:56:13 PM,-,1627476860206,
2021-07-28 02:56:13 PM,-,1627476860210,
2021-07-28 02:56:13 PM,-,1627476860213,
2021-07-28 02:56:13 PM,-,1627476860216,
2021-07-28 02:56:13 PM,-,1627476860220,
2021-07-28 02:56:13 PM,-,1627476860223,
2021-07-28 02:56:13 PM,-,1627476860226,
2021-07-28 02:56:13 PM,-,1627476860230,
2021-07-28 02:56:13 PM,-,1627476860233,
2021-07-28 02:56:13 PM,-,1627476860236,
2021-07-28 02:56:13 PM,-,1627476860240,
2021-07-28 02:56:13 PM,-,1627476860243,
2021-07-28 02:56:13 PM,-,1627476860246,
2021-07-28 02:56:13 PM,-,1627476860250,
2021-07-28 02:56:13 PM,-,1627476860253,
2021-07-28 02:56:13 PM,-,1627476860256,
2021-07-28 02:56:13 PM,-,1627476860260,
2021-07-28 02:56:13 PM,-,1627476860263,
2021-07-28 02:56:13 PM,-,1627476860266,
2021-07-28 02:56:13 PM,-,1627476860270,
2021-07-28 02:56:13 PM,-,1627476860273,
2021-07-28 02:56:13 PM,-,1627476860276,
2021-07-28 02:56:13 PM,-,1627476860280,
2021-07-28 02:56:13 PM,-,1627476860283,
2021-07-28 02:56:13 PM,-,1627476860286,
2021-07-28 02:56:13 PM,-,1627476860290,
2021-07-28 02:56:13 PM,-,1627476860293,
2021-07-28 02:56:13 PM,-,1627476860296,
2021-07-28 02:56:13 PM,-,1627476860300,
2021-07-28 02:56:13 PM,-,1627476860303,
2021-07-28 02:56:13 PM,-,1627476860306,
2021-07-28 02:56:13 PM,-,1627476860310,
2021-07-28 02:56:13 PM,-,1627476860313,
2021-07-28 02:56:13 PM,-,1627476860316,
2021-07-28 02:56:13 PM,-,1627476860320,
2021-07-28 02:56:13 PM,-,1627476860323,
2021-07-28 02:56:13 PM,-,1627476860326,
2021-07-28 02:56:13 PM,-,1627476860330,
2021-07-28 02:56:13 PM,-,1627476860333,
2021-07-28 02:56:13 PM,-,1627476860336,
2021-07-28 02:56:13 PM,-,1627476860340,
2021-07-28 02:56:13 PM,-,1627476860343,
2021-07-28 02:56:13 PM,-,1627476860346,
2021-07-28 02:56:13 PM,-,1627476860350,
2021-07-28 02:56:13 PM,-,1627476860353,
2021-07-28 02:56:13 PM,-,1627476860356,
2021-07-28 02:56:13 PM,-,1627476860360,
2021-07-28 02:56:13 PM,-,1627476860363,
2021-07-28 02:56:13 PM,-,1627476860366,
2021-07-28 02:56:13 PM,-,1627476860370,
2021-07-28 02:56:13 PM,-,1627476860373,
2021-07-28 02:56:13 PM,-,1627476860376,
2021-07-28 02:56:13 PM,-,1627476860380,
2021-07-28 02:56:13 PM,-,1627476860383,
2021-07-28 02:56:13 PM,-,1627476860386,
2021-07-28 02:56:13 PM,-,1627476860390,
2021-07-28 02:56:13 PM,-,1627476860393,
2021-07-28 02:56:13 PM,-,1627476860396,
2021-07-28 02:56:13 PM,-,1627476860400,
2021-07-28 02:56:13 PM,-,1627476860403,
2021-07-28 02:56:13 PM,-,1627476860406,
2021-07-28 02:56:13 PM,-,1627476860410,
2021-07-28 02:56:13 PM,-,1627476860413,
2021-07-28 02:56:13 PM,-,1627476860416,
2021-07-28 02:56:13 PM,-,1627476860420,
2021-07-28 02:56:13 PM,-,1627476860423,
2021-07-28 02:56:13 PM,-,1627476860426,
2021-07-28 02:56:13 PM,-,1627476860430,
2021-07-28 02:56:13 PM,-,1627476860433,
2021-07-28 02:56:13 PM,-,1627476860436,
2021-07-28 02:56:13 PM,-,1627476860440,
2021-07-28 02:56:13 PM,-,1627476860443,
2021-07-28 02:56:13 PM,-,1627476860446,
2021-07-28 02:56:13 PM,-,1627476860450,
2021-07-28 02:56:13 PM,-,1627476860453,
2021-07-28 02:56:13 PM,-,1627476860456,
2021-07-28 02:56:13 PM,-,1627476860460,
2021-07-28 02:56:13 PM,-,1627476860463,
2021-07-28 02:56:13 PM,-,1627476860466,
2021-07-28 02:56:13 PM,-,1627476860470,
2021-07-28 02:56:13 PM,-,1627476860473,
2021-07-28 02:56:13 PM,-,1627476860476,
2021-07-28 02:56:13 PM,-,1627476860480,
2021-07-28 02:56:13 PM,-,1627476860483,
2021-07-28 02:56:13 PM,-,1627476860486,
2021-07-28 02:56:13 PM,-,1627476860490,
2021-07-28 02:56:13 PM,-,1627476860493,
2021-07-28 02:56:13 PM,-,1627476860496,
2021-07-28 02:56:13 PM,-,1627476860500,
2021-07-28 02:56:13 PM,-,1627476860503,
2021-07-28 02:56:13 PM,-,1627476860506,
2021-07-28 02:56:13 PM,-,1627476860510,
2021-07-28 02:56:13 PM,-,1627476860513,
2021-07-28 02:56:13 PM,-,1627476860516,
2021-07-28 02:56:13 PM,-,1627476860520,
2021-07-28 02:56:13 PM,-,1627476860523,
2021-07-28 02:56:13 PM,-,1627476860526,
2021-07-28 02:56:13 PM,-,1627476860530,
2021-07-28 02:56:13 PM,-,1627476860533,
2021-07-28 02:56:13 PM,-,1627476860536,
2021-07-28 02:56:13 PM,-,1627476860540,
2021-07-28 02:56:13 PM,-,1627476860543,
2021-07-28 02:56:13 PM,-,1627476860546,
2021-07-28 02:56:13 PM,-,1627476860550,
2021-07-28 02:56:13 PM,-,1627476860553,
2021-07-28 02:56:13 PM,-,1627476860556,
2021-07-28 02:56:13 PM,-,1627476860560,
2021-07-28 02:56:13 PM,-,1627476860563,
2021-07-28 02:56:13 PM,-,1627476860566,
2021-07-28 02:56:13 PM,-,1627476860570,
2021-07-28 02:56:13 PM,-,1627476860573,
2021-07-28 02:56:13 PM,-,1627476860576,
2021-07-28 02:56:13 PM,-,1627476860580,
2021-07-28 02:56:13 PM,-,1627476860583,
2021-07-28 02:56:13 PM,-,1627476860586,
2021-07-28 02:56:13 PM,-,1627476860590,
2021-07-28 02:56:13 PM,-,1627476860593,
2021-07-28 02:56:13 PM,-,1627476860596,
2021-07-28 02:56:13 PM,-,1627476860600,
2021-07-28 02:56:13 PM,-,1627476860603,
2021-07-28 02:56:13 PM,-,1627476860606,
2021-07-28 02:56:13 PM,-,1627476860610,
2021-07-28 02:56:13 PM,-,1627476860613,
2021-07-28 02:56:13 PM,-,1627476860616,
2021-07-28 02:56:13 PM,-,1627476860620,
2021-07-28 02:56:13 PM,-,1627476860623,
2021-07-28 02:56:13 PM,-,1627476860626,
2021-07-28 02:56:13 PM,-,1627476860630,
2021-07-28 02:56:13 PM,-,1627476860633,
2021-07-28 02:56:13 PM,-,1627476860636,
2021-07-28 02:56:13 PM,-,1627476860640,
2021-07-28 02:56:13 PM,-,1627476860643,
2021-07-28 02:56:13 PM,-,1627476860646,
2021-07-28 02:56:13 PM,-,1627476860650,
2021-07-28 02:56:13 PM,-,1627476860653,
2021-07-28 02:56:13 PM,-,1627476860656,
2021-07-28 02:56:13 PM,-,1627476860660,
2021-07-28 02:56:13 PM,-,1627476860663,
2021-07-28 02:56:13 PM,-,1627476860666,
2021-07-28 02:56:13 PM,-,1627476860670,
2021-07-28 02:56:13 PM,-,1627476860673,
2021-07-28 02:56:13 PM,-,1627476860676,
2021-07-28 02:56:13 PM,-,1627476860680,
2021-07-28 02:56:13 PM,-,1627476860683,
2021-07-28 02:56:13 PM,-,1627476860686,
2021-07-28 02:56:13 PM,-,1627476860690,
2021-07-28 02:56:13 PM,-,1627476860693,
2021-07-28 02:56:13 PM,-,1627476860696,
2021-07-28 02:56:13 PM,-,1627476860700,
2021-07-28 02:56:13 PM,-,1627476860703,
2021-07-28 02:56:13 PM,-,1627476860706,
2021-07-28 02:56:13 PM,-,1627476860710,
2021-07-28 02:56:13 PM,-,1627476860713,
2021-07-28 02:56:13 PM,-,1627476860716,
2021-07-28 02:56:13 PM,-,1627476860720,
2021-07-28 02:56:13 PM,-,1627476860723,
2021-07-28 02:56:13 PM,-,1627476860726,
2021-07-28 02:56:13 PM,-,1627476860730,
2021-07-28 02:56:13 PM,-,1627476860733,
2021-07-28 02:56:13 PM,-,1627476860736,
2021-07-28 02:56:13 PM,-,1627476860740,
2021-07-28 02:56:13 PM,-,1627476860743,
2021-07-28 02:56:13 PM,-,1627476860746,
2021-07-28 02:56:13 PM,-,1627476860750,
2021-07-28 02:56:13 PM,-,1627476860753,
2021-07-28 02:56:13 PM,-,1627476860756,
2021-07-28 02:56:13 PM,-,1627476860760,
2021-07-28 02:56:13 PM,-,1627476860763,
2021-07-28 02:56:13 PM,-,1627476860766,
2021-07-28 02:56:13 PM,-,1627476860770,
2021-07-28 02:56:13 PM,-,1627476860773,
2021-07-28 02:56:13 PM,-,1627476860776,
2021-07-28 02:56:13 PM,-,1627476860780,
2021-07-28 02:56:13 PM,-,1627476860783,
2021-07-28 02:56:13 PM,-,1627476860786,
2021-07-28 02:56:13 PM,-,1627476860790,
2021-07-28 02:56:13 PM,-,1627476860793,
2021-07-28 02:56:13 PM,-,1627476860796,
2021-07-28 02:56:13 PM,-,1627476860800,
2021-07-28 02:56:13 PM,-,1627476860803,
2021-07-28 02:56:13 PM,-,1627476860806,
2021-07-28 02:56:13 PM,-,1627476860810,
2021-07-28 02:56:13 PM,-,1627476860813,
2021-07-28 02:56:13 PM,-,1627476860816,
2021-07-28 02:56:13 PM,-,1627476860820,
2021-07-28 02:56:13 PM,-,1627476860823,
2021-07-28 02:56:13 PM,-,1627476860826,
2021-07-28 02:56:13 PM,-,1627476860830,
2021-07-28 02:56:13 PM,-,1627476860833,
2021-07-28 02:56:13 PM,-,1627476860836,
2021-07-28 02:56:13 PM,-,1627476860840,
2021-07-28 02:56:13 PM,-,1627476860843,
2021-07-28 02:56:13 PM,-,1627476860846,
2021-07-28 02:56:13 PM,-,1627476860850,
2021-07-28 02:56:13 PM,-,1627476860853,
2021-07-28 02:56:13 PM,-,1627476860856,
2021-07-28 02:56:13 PM,-,1627476860860,
2021-07-28 02:56:13 PM,-,1627476860863,
2021-07-28 02:56:13 PM,-,1627476860866,
2021-07-28 02:56:13 PM,-,1627476860870,
2021-07-28 02:56:13 PM,-,1627476860873,
2021-07-28 02:56:13 PM,-,1627476860876,
2021-07-28 02:56:13 PM,-,1627476860880,
2021-07-28 02:56:13 PM,-,1627476860883,
2021-07-28 02:56:13 PM,-,1627476860886,
2021-07-28 02:56:13 PM,-,1627476860890,
2021-07-28 02:56:13 PM,-,1627476860893,
2021-07-28 02:56:13 PM,-,1627476860896,
2021-07-28 02:56:13 PM,-,1627476860900,
2021-07-28 02:56:13 PM,-,1627476860903,
2021-07-28 02:56:13 PM,-,1627476860906,
2021-07-28 02:56:13 PM,-,1627476860910,
2021-07-28 02:56:13 PM,-,1627476860913,
2021-07-28 02:56:13 PM,-,1627476860916,
2021-07-28 02:56:13 PM,-,1627476860920,
2021-07-28 02:56:13 PM,-,1627476860923,
2021-07-28 02:56:13 PM,-,1627476860926,
2021-07-28 02:56:13 PM,-,1627476860930,
2021-07-28 02:56:13 PM,-,1627476860933,
2021-07-28 02:56:13 PM,-,1627476860936,
2021-07-28 02:56:13 PM,-,1627476860940,
2021-07-28 02:56:13 PM,-,1627476860943,
2021-07-28 02:56:13 PM,-,1627476860946,
2021-07-28 02:56:13 PM,-,1627476860950,
2021-07-28 02:56:13 PM,-,1627476860953,
2021-07-28 02:56:13 PM,-,1627476860956,
2021-07-28 02:56:13 PM,-,1627476860960,
2021-07-28 02:56:13 PM,-,1627476860963,
2021-07-28 02:56:13 PM,-,1627476860966,
2021-07-28 02:56:13 PM,-,1627476860970,
2021-07-28 02:56:13 PM,-,1627476860973,
2021-07-28 02:56:13 PM,-,1627476860976,
2021-07-28 02:56:13 PM,-,1627476860980,
2021-07-28 02:56:13 PM,-,1627476860983,
2021-07-28 02:56:13 PM,-,1627476860986,
2021-07-28 02:56:13 PM,-,1627476860990,
2021-07-28 02:56:13 PM,-,1627476860993,
2021-07-28 02:56:13 PM,-,1627476860996,
2021-07-28 02:56:14 PM,-,1627476870000,
2021-07-28 02:56:14 PM,-,1627476870003,
2021-07-28 02:56:14 PM,-,1627476870006,
2021-07-28 02:56:14 PM,-,1627476870010,
2021-07-28 02:56:14 PM,-,1627476870013,
2021-07-28 02:56:14 PM,-,1627476870016,
2021-07-28 02:56:14 PM,-,1627476870020,
2021-07-28 02:56:14 PM,-,1627476870023,
2021-07-28 02:56:14 PM,-,1627476870026,
2021-07-28 02:56:14 PM,-,1627476870030,
2021-07-28 02:56:14 PM,-,1627476870033,
2021-07-28 02:56:14 PM,-,1627476870036,
2021-07-28 02:56:14 PM,-,1627476870040,
2021-07-28 02:56:14 PM,-,1627476870043,
2021-07-28 02:56:14 PM,-,1627476870046,
2021-07-28 02:56:14 PM,-,1627476870050,
2021-07-28 02:56:14 PM,-,1627476870053,
2021-07-28 02:56:14 PM,-,1627476870056,
2021-07-28 02:56:14 PM,-,1627476870060,
2021-07-28 02:56:14 PM,-,1627476870063,
2021-07-28 02:56:14 PM,-,1627476870066,
2021-07-28 02:56:14 PM,-,1627476870070,
2021-07-28 02:56:14 PM,-,1627476870073,
2021-07-28 02:56:14 PM,-,1627476870076,
2021-07-28 02:56:14 PM,-,1627476870080,
2021-07-28 02:56:14 PM,-,1627476870083,
2021-07-28 02:56:14 PM,-,1627476870086,
2021-07-28 02:56:14 PM,-,1627476870090,
2021-07-28 02:56:14 PM,-,1627476870093,
2021-07-28 02:56:14 PM,-,1627476870096,
2021-07-28 02:56:14 PM,-,1627476870100,
2021-07-28 02:56:14 PM,-,1627476870103,
2021-07-28 02:56:14 PM,-,1627476870106,
2021-07-28 02:56:14 PM,-,1627476870110,
2021-07-28 02:56:14 PM,-,1627476870113,
2021-07-28 02:56:14 PM,-,1627476870116,
2021-07-28 02:56:14 PM,-,1627476870120,
2021-07-28 02:56:14 PM,-,1627476870123,
2021-07-28 02:56:14 PM,-,1627476870126,
2021-07-28 02:56:14 PM,-,1627476870130,
2021-07-28 02:56:14 PM,-,1627476870133,
2021-07-28 02:56:14 PM,-,1627476870136,
2021-07-28 02:56:14 PM,-,1627476870140,
2021-07-28 02:56:14 PM,-,1627476870143,
2021-07-28 02:56:14 PM,-,1627476870146,
2021-07-28 02:56:14 PM,-,1627476870150,
2021-07-28 02:56:14 PM,-,1627476870153,
2021-07-28 02:56:14 PM,-,1627476870156,
2021-07-28 02:56:14 PM,-,1627476870160,
2021-07-28 02:56:14 PM,-,1627476870163,
2021-07-28 02:56:14 PM,-,1627476870166,
2021-07-28 02:56:14 PM,-,1627476870170,
2021-07-28 02:56:14 PM,-,1627476870173,
2021-07-28 02:56:14 PM,-,1627476870176,
2021-07-28 02:56:14 PM,-,1627476870180,
2021-07-28 02:56:14 PM,-,1627476870183,
2021-07-28 02:56:14 PM,-,1627476870186,
2021-07-28 02:56:14 PM,-,1627476870190,
2021-07-28 02:56:14 PM,-,1627476870193,
2021-07-28 02:56:14 PM,-,1627476870196,
2021-07-28 02:56:14 PM,-,1627476870200,
2021-07-28 02:56:14 PM,-,1627476870203,
2021-07-28 02:56:14 PM,-,1627476870206,
2021-07-28 02:56:14 PM,-,1627476870210,
2021-07-28 02:56:14 PM,-,1627476870213,
2021-07-28 02:56:14 PM,-,1627476870216,
2021-07-28 02:56:14 PM,-,1627476870220,
2021-07-28 02:56:14 PM,-,1627476870223,
2021-07-28 02:56:14 PM,-,1627476870226,
2021-07-28 02:56:14 PM,-,1627476870230,
2021-07-28 02:56:14 PM,-,1627476870233,
2021-07-28 02:56:14 PM,-,1627476870236,
2021-07-28 02:56:14 PM,-,1627476870240,
2021-07-28 02:56:14 PM,-,1627476870243,
2021-07-28 02:56:14 PM,-,1627476870246,
2021-07-28 02:56:14 PM,-,1627476870250,
2021-07-28 02:56:14 PM,-,1627476870253,
2021-07-28 02:56:14 PM,-,1627476870256,
2021-07-28 02:56:14 PM,-,1627476870260,
2021-07-28 02:56:14 PM,-,1627476870263,
2021-07-28 02:56:14 PM,-,1627476870266,
2021-07-28 02:56:14 PM,-,1627476870270,
2021-07-28 02:56:14 PM,-,1627476870273,
2021-07-28 02:56:14 PM,-,1627476870276,
2021-07-28 02:56:14 PM,-,1627476870280,
2021-07-28 02:56:14 PM,-,1627476870283,
2021-07-28 02:56:14 PM,-,1627476870286,
2021-07-28 02:56:14 PM,-,1627476870290,
2021-07-28 02:56:14 PM,-,1627476870293,
2021-07-28 02:56:14 PM,-,1627476870296,
2021-07-28 02:56:14 PM,-,1627476870300,
2021-07-28 02:56:14 PM,-,1627476870303,
2021-07-28 02:56:14 PM,-,1627476870306,
2021-07-28 02:56:14 PM,-,1627476870310,
2021-07-28 02:56:14 PM,-,1627476870313,
2021-07-28 02:56:14 PM,-,1627476870316,
2021-07-28 02:56:14 PM,-,1627476870320,
2021-07-28 02:56:14 PM,-,1627476870323,
2021-07-28 02:56:14 PM,-,1627476870326,
2021-07-28 02:56:14 PM,-,1627476870330,
2021-07-28 02:56:14 PM,-,1627476870333,
2021-07-28 02:56:14 PM,-,1627476870336,
2021-07-28 02:56:14 PM,-,1627476870340,
2021-07-28 02:56:14 PM,-,1627476870343,
2021-07-28 02:56:14 PM,-,1627476870346,
2021-07-28 02:56:14 PM,-,1627476870350,
2021-07-28 02:56:14 PM,-,1627476870353,
2021-07-28 02:56:14 PM,-,1627476870356,
2021-07-28 02:56:14 PM,-,1627476870360,
2021-07-28 02:56:14 PM,-,1627476870363,
2021-07-28 02:56:14 PM,-,1627476870366,
2021-07-28 02:56:14 PM,-,1627476870370,
2021-07-28 02:56:14 PM,-,1627476870373,
2021-07-28 02:56:14 PM,-,1627476870376,
2021-07-28 02:56:14 PM,-,1627476870380,
2021-07-28 02:56:14 PM,-,1627476870383,
2021-07-28 02:56:14 PM,-,1627476870386,
2021-07-28 02:56:14 PM,-,1627476870390,
2021-07-28 02:56:14 PM,-,1627476870393,
2021-07-28 02:56:14 PM,-,1627476870396,
2021-07-28 02:56:14 PM,-,1627476870400,
2021-07-28 02:56:14 PM,-,1627476870403,
2021-07-28 02:56:14 PM,-,1627476870406,
2021-07-28 02:56:14 PM,-,1627476870410,
2021-07-28 02:56:14 PM,-,1627476870413,
2021-07-28 02:56:14 PM,-,1627476870416,
2021-07-28 02:56:14 PM,-,1627476870420,
2021-07-28 02:56:14 PM,-,1627476870423,
2021-07-28 02:56:14 PM,-,1627476870426,
2021-07-28 02:56:14 PM,-,1627476870430,
2021-07-28 02:56:14 PM,-,1627476870433,
2021-07-28 02:56:14 PM,-,1627476870436,
2021-07-28 02:56:14 PM,-,1627476870440,
2021-07-28 02:56:14 PM,-,1627476870443,
2021-07-28 02:56:14 PM,-,1627476870446,
2021-07-28 02:56:14 PM,-,1627476870450,
2021-07-28 02:56:14 PM,-,1627476870453,
2021-07-28 02:56:14 PM,-,1627476870456,
2021-07-28 02:56:14 PM,-,1627476870460,
2021-07-28 02:56:14 PM,-,1627476870463,
2021-07-28 02:56:14 PM,-,1627476870466,
2021-07-28 02:56:14 PM,-,1627476870470,
2021-07-28 02:56:14 PM,-,1627476870473,
2021-07-28 02:56:14 PM,-,1627476870476,
2021-07-28 02:56:14 PM,-,1627476870480,
2021-07-28 02:56:14 PM,-,1627476870483,
2021-07-28 02:56:14 PM,-,1627476870486,
2021-07-28 02:56:14 PM,-,1627476870490,
2021-07-28 02:56:14 PM,-,1627476870493,
2021-07-28 02:56:14 PM,-,1627476870496,
2021-07-28 02:56:14 PM,-,1627476870500,
2021-07-28 02:56:14 PM,-,1627476870503,
2021-07-28 02:56:14 PM,-,1627476870506,
2021-07-28 02:56:14 PM,-,1627476870510,
2021-07-28 02:56:14 PM,-,1627476870513,
2021-07-28 02:56:14 PM,-,1627476870516,
2021-07-28 02:56:14 PM,-,1627476870520,
2021-07-28 02:56:14 PM,-,1627476870523,
2021-07-28 02:56:14 PM,-,1627476870526,
2021-07-28 02:56:14 PM,-,1627476870530,
2021-07-28 02:56:14 PM,-,1627476870533,
2021-07-28 02:56:14 PM,-,1627476870536,
2021-07-28 02:56:14 PM,-,1627476870540,
2021-07-28 02:56:14 PM,-,1627476870543,
2021-07-28 02:56:14 PM,-,1627476870546,
2021-07-28 02:56:14 PM,-,1627476870550,
2021-07-28 02:56:14 PM,-,1627476870553,
2021-07-28 02:56:14 PM,-,1627476870556,
2021-07-28 02:56:14 PM,-,1627476870560,
2021-07-28 02:56:14 PM,-,1627476870563,
2021-07-28 02:56:14 PM,-,1627476870566,
2021-07-28 02:56:14 PM,-,1627476870570,
2021-07-28 02:56:14 PM,-,1627476870573,
2021-07-28 02:56:14 PM,-,1627476870576,
2021-07-28 02:56:14 PM,-,1627476870580,
2021-07-28 02:56:14 PM,-,1627476870583,
2021-07-28 02:56:14 PM,-,1627476870586,
2021-07-28 02:56:14 PM,-,1627476870590,
2021-07-28 02:56:14 PM,-,1627476870593,
2021-07-28 02:56:14 PM,-,1627476870596,
2021-07-28 02:56:14 PM,-,1627476870600,
2021-07-28 02:56:14 PM,-,1627476870603,
2021-07-28 02:56:14 PM,-,1627476870606,
2021-07-28 02:56:14 PM,-,1627476870610,
2021-07-28 02:56:14 PM,-,1627476870613,
2021-07-28 02:56:14 PM,-,1627476870616,
2021-07-28 02:56:14 PM,-,1627476870620,
2021-07-28 02:56:14 PM,-,1627476870623,
2021-07-28 02:56:14 PM,-,1627476870626,
2021-07-28 02:56:14 PM,-,1627476870630,
2021-07-28 02:56:14 PM,-,1627476870633,
2021-07-28 02:56:14 PM,-,1627476870636,
2021-07-28 02:56:14 PM,-,1627476870640,
2021-07-28 02:56:14 PM,-,1627476870643,
2021-07-28 02:56:14 PM,-,1627476870646,
2021-07-28 02:56:14 PM,-,1627476870650,
2021-07-28 02:56:14 PM,-,1627476870653,
2021-07-28 02:56:14 PM,-,1627476870656,
2021-07-28 02:56:14 PM,-,1627476870660,
2021-07-28 02:56:14 PM,-,1627476870663,
2021-07-28 02:56:14 PM,-,1627476870666,
2021-07-28 02:56:14 PM,-,1627476870670,
2021-07-28 02:56:14 PM,-,1627476870673,
2021-07-28 02:56:14 PM,-,1627476870676,
2021-07-28 02:56:14 PM,-,1627476870680,
2021-07-28 02:56:14 PM,-,1627476870683,
2021-07-28 02:56:14 PM,-,1627476870686,
2021-07-28 02:56:14 PM,-,1627476870690,
2021-07-28 02:56:14 PM,-,1627476870693,
2021-07-28 02:56:14 PM,-,1627476870696,
2021-07-28 02:56:14 PM,-,1627476870700,
2021-07-28 02:56:14 PM,-,1627476870703,
2021-07-28 02:56:14 PM,-,1627476870706,
2021-07-28 02:56:14 PM,-,1627476870710,
2021-07-28 02:56:14 PM,-,1627476870713,
2021-07-28 02:56:14 PM,-,1627476870716,
2021-07-28 02:56:14 PM,-,1627476870720,
2021-07-28 02:56:14 PM,-,1627476870723,
2021-07-28 02:56:14 PM,-,1627476870726,
2021-07-28 02:56:14 PM,-,1627476870730,
2021-07-28 02:56:14 PM,-,1627476870733,
2021-07-28 02:56:14 PM,-,1627476870736,
2021-07-28 02:56:14 PM,-,1627476870740,
2021-07-28 02:56:14 PM,-,1627476870743,
2021-07-28 02:56:14 PM,-,1627476870746,
2021-07-28 02:56:14 PM,-,1627476870750,
2021-07-28 02:56:14 PM,-,1627476870753,
2021-07-28 02:56:14 PM,-,1627476870756,
2021-07-28 02:56:14 PM,-,1627476870760,
2021-07-28 02:56:14 PM,-,1627476870763,
2021-07-28 02:56:14 PM,-,1627476870766,
2021-07-28 02:56:14 PM,-,1627476870770,
2021-07-28 02:56:14 PM,-,1627476870773,
2021-07-28 02:56:14 PM,-,1627476870776,
2021-07-28 02:56:14 PM,-,1627476870780,
2021-07-28 02:56:14 PM,-,1627476870783,
2021-07-28 02:56:14 PM,-,1627476870786,
2021-07-28 02:56:14 PM,-,1627476870790,
2021-07-28 02:56:14 PM,-,1627476870793,
2021-07-28 02:56:14 PM,-,1627476870796,
2021-07-28 02:56:14 PM,-,1627476870800,
2021-07-28 02:56:14 PM,-,1627476870803,
2021-07-28 02:56:14 PM,-,1627476870806,
2021-07-28 02:56:14 PM,-,1627476870810,
2021-07-28 02:56:14 PM,-,1627476870813,
2021-07-28 02:56:14 PM,-,1627476870816,
2021-07-28 02:56:14 PM,-,1627476870820,
2021-07-28 02:56:14 PM,-,1627476870823,
2021-07-28 02:56:14 PM,-,1627476870826,
2021-07-28 02:56:14 PM,-,1627476870830,
2021-07-28 02:56:14 PM,-,1627476870833,
2021-07-28 02:56:14 PM,-,1627476870836,
2021-07-28 02:56:14 PM,-,1627476870840,
2021-07-28 02:56:14 PM,-,1627476870843,
2021-07-28 02:56:14 PM,-,1627476870846,
2021-07-28 02:56:14 PM,-,1627476870850,
2021-07-28 02:56:14 PM,-,1627476870853,
2021-07-28 02:56:14 PM,-,1627476870856,
2021-07-28 02:56:14 PM,-,1627476870860,
2021-07-28 02:56:14 PM,-,1627476870863,
2021-07-28 02:56:14 PM,-,1627476870866,
2021-07-28 02:56:14 PM,-,1627476870870,
2021-07-28 02:56:14 PM,-,1627476870873,
2021-07-28 02:56:14 PM,-,1627476870876,
2021-07-28 02:56:14 PM,-,1627476870880,
2021-07-28 02:56:14 PM,-,1627476870883,
2021-07-28 02:56:14 PM,-,1627476870886,
2021-07-28 02:56:14 PM,-,1627476870890,
2021-07-28 02:56:14 PM,-,1627476870893,
2021-07-28 02:56:14 PM,-,1627476870896,
2021-07-28 02:56:14 PM,-,1627476870900,
2021-07-28 02:56:14 PM,-,1627476870903,
2021-07-28 02:56:14 PM,-,1627476870906,
2021-07-28 02:56:14 PM,-,1627476870910,
2021-07-28 02:56:14 PM,-,1627476870913,
2021-07-28 02:56:14 PM,-,1627476870916,
2021-07-28 02:56:14 PM,-,1627476870920,
2021-07-28 02:56:14 PM,-,1627476870923,
2021-07-28 02:56:14 PM,-,1627476870926,
2021-07-28 02:56:14 PM,-,1627476870930,
2021-07-28 02:56:14 PM,-,1627476870933,
2021-07-28 02:56:14 PM,-,1627476870936,
2021-07-28 02:56:14 PM,-,1627476870940,
2021-07-28 02:56:14 PM,-,1627476870943,
2021-07-28 02:56:14 PM,-,1627476870946,
2021-07-28 02:56:14 PM,-,1627476870950,
2021-07-28 02:56:14 PM,-,1627476870953,
2021-07-28 02:56:14 PM,-,1627476870956,
2021-07-28 02:56:14 PM,-,1627476870960,
2021-07-28 02:56:14 PM,-,1627476870963,
2021-07-28 02:56:14 PM,-,1627476870966,
2021-07-28 02:56:14 PM,-,1627476870970,
2021-07-28 02:56:14 PM,-,1627476870973,
2021-07-28 02:56:14 PM,-,1627476870976,
2021-07-28 02:56:14 PM,-,1627476870980,
2021-07-28 02:56:14 PM,-,1627476870983,
2021-07-28 02:56:14 PM,-,1627476870986,
2021-07-28 02:56:14 PM,-,1627476870990,
2021-07-28 02:56:14 PM,-,1627476870993,
2021-07-28 02:56:14 PM,-,1627476870996,
2021-07-28 03:06:55 PM,-,1627477545000,
2021-07-28 03:06:55 PM,-,1627477545003,
2021-07-28 03:06:55 PM,-,1627477545006,
2021-07-28 03:06:55 PM,-,1627477545010,
2021-07-28 03:06:55 PM,-,1627477545013,
2021-07-28 03:06:55 PM,-,1627477545016,
2021-07-28 03:06:55 PM,-,1627477545020,
2021-07-28 03:06:55 PM,-,1627477545023,
2021-07-28 03:06:55 PM,-,1627477545026,
2021-07-28 03:06:55 PM,-,1627477545030,
2021-07-28 03:06:55 PM,-,1627477545033,
2021-07-28 03:06:55 PM,-,1627477545036,
2021-07-28 03:06:55 PM,-,1627477545040,
2021-07-28 03:06:55 PM,-,1627477545043,
2021-07-28 03:06:55 PM,-,1627477545046,
2021-07-28 03:06:55 PM,-,1627477545050,
2021-07-28 03:06:55 PM,-,1627477545053,
2021-07-28 03:06:55 PM,-,1627477545056,
2021-07-28 03:06:55 PM,-,1627477545060,
2021-07-28 03:06:55 PM,-,1627477545063,
2021-07-28 03:06:55 PM,-,1627477545066,
2021-07-28 03:06:55 PM,-,1627477545070,
2021-07-28 03:06:55 PM,-,1627477545073,
2021-07-28 03:06:55 PM,-,1627477545076,
2021-07-28 03:06:55 PM,-,1627477545080,
2021-07-28 03:06:55 PM,-,1627477545083,
2021-07-28 03:06:55 PM,-,1627477545086,
2021-07-28 03:06:55 PM,-,1627477545090,
2021-07-28 03:06:55 PM,-,1627477545093,
2021-07-28 03:06:55 PM,-,1627477545096,
2021-07-28 03:06:55 PM,-,1627477545100,
2021-07-28 03:06:55 PM,-,1627477545103,
2021-07-28 03:06:55 PM,-,1627477545106,
2021-07-28 03:06:55 PM,-,1627477545110,
2021-07-28 03:06:55 PM,-,1627477545113,
2021-07-28 03:06:55 PM,-,1627477545116,
2021-07-28 03:06:55 PM,-,1627477545120,
2021-07-28 03:06:55 PM,-,1627477545123,
2021-07-28 03:06:55 PM,-,1627477545126,
2021-07-28 03:06:55 PM,-,1627477545130,
2021-07-28 03:06:55 PM,-,1627477545133,
2021-07-28 03:06:55 PM,-,1627477545136,
2021-07-28 03:06:55 PM,-,1627477545140,
2021-07-28 03:06:55 PM,-,1627477545143,
2021-07-28 03:06:55 PM,-,1627477545146,
2021-07-28 03:06:55 PM,-,1627477545150,
2021-07-28 03:06:55 PM,-,1627477545153,
2021-07-28 03:06:55 PM,-,1627477545156,
2021-07-28 03:06:55 PM,-,1627477545160,
2021-07-28 03:06:55 PM,-,1627477545163,
2021-07-28 03:06:55 PM,-,1627477545166,
2021-07-28 03:06:55 PM,-,1627477545170,
2021-07-28 03:06:55 PM,-,1627477545173,
2021-07-28 03:06:55 PM,-,1627477545176,
2021-07-28 03:06:55 PM,-,1627477545180,
2021-07-28 03:06:55 PM,-,1627477545183,
2021-07-28 03:06:55 PM,-,1627477545186,
2021-07-28 03:06:55 PM,-,1627477545190,
2021-07-28 03:06:55 PM,-,1627477545193,
2021-07-28 03:06:55 PM,-,1627477545196,
2021-07-28 03:06:55 PM,-,1627477545200,
2021-07-28 03:06:55 PM,-,1627477545203,
2021-07-28 03:06:55 PM,-,1627477545206,
2021-07-28 03:06:55 PM,-,1627477545210,
2021-07-28 03:06:55 PM,-,1627477545213,
2021-07-28 03:06:55 PM,-,1627477545216,
2021-07-28 03:06:55 PM,-,1627477545220,
2021-07-28 03:06:55 PM,-,1627477545223,
2021-07-28 03:06:55 PM,-,1627477545226,
2021-07-28 03:06:55 PM,-,1627477545230,
2021-07-28 03:06:55 PM,-,1627477545233,
2021-07-28 03:06:55 PM,-,1627477545236,
2021-07-28 03:06:55 PM,-,1627477545240,
2021-07-28 03:06:55 PM,-,1627477545243,
2021-07-28 03:06:55 PM,-,1627477545246,
2021-07-28 03:06:55 PM,-,1627477545250,
2021-07-28 03:06:55 PM,-,1627477545253,
2021-07-28 03:06:55 PM,-,1627477545256,
2021-07-28 03:06:55 PM,-,1627477545260,
2021-07-28 03:06:55 PM,-,1627477545263,
2021-07-28 03:06:55 PM,-,1627477545266,
2021-07-28 03:06:55 PM,-,1627477545270,
2021-07-28 03:06:55 PM,-,1627477545273,
2021-07-28 03:06:55 PM,-,1627477545276,
2021-07-28 03:06:55 PM,-,1627477545280,
2021-07-28 03:06:55 PM,-,1627477545283,
2021-07-28 03:06:55 PM,-,1627477545286,
2021-07-28 03:06:55 PM,-,1627477545290,
2021-07-28 03:06:55 PM,-,1627477545293,
2021-07-28 03:06:55 PM,-,1627477545296,
2021-07-28 03:06:55 PM,-,1627477545300,
2021-07-28 03:06:55 PM,-,1627477545303,
2021-07-28 03:06:55 PM,-,1627477545306,
2021-07-28 03:06:55 PM,-,1627477545310,
2021-07-28 03:06:55 PM,-,1627477545313,
2021-07-28 03:06:55 PM,-,1627477545316,
2021-07-28 03:06:55 PM,-,1627477545320,
2021-07-28 03:06:55 PM,-,1627477545323,
2021-07-28 03:06:55 PM,-,1627477545326,
2021-07-28 03:06:55 PM,-,1627477545330,
2021-07-28 03:06:55 PM,-,1627477545333,
2021-07-28 03:06:55 PM,-,1627477545336,
2021-07-28 03:06:55 PM,-,1627477545340,
2021-07-28 03:06:55 PM,-,1627477545343,
2021-07-28 03:06:55 PM,-,1627477545346,
2021-07-28 03:06:55 PM,-,1627477545350,
2021-07-28 03:06:55 PM,-,1627477545353,
2021-07-28 03:06:55 PM,-,1627477545356,
2021-07-28 03:06:55 PM,-,1627477545360,
2021-07-28 03:06:55 PM,-,1627477545363,
2021-07-28 03:06:55 PM,-,1627477545366,
2021-07-28 03:06:55 PM,-,1627477545370,
2021-07-28 03:06:55 PM,-,1627477545373,
2021-07-28 03:06:55 PM,-,1627477545376,
2021-07-28 03:06:55 PM,-,1627477545380,
2021-07-28 03:06:55 PM,-,1627477545383,
2021-07-28 03:06:55 PM,-,1627477545386,
2021-07-28 03:06:55 PM,-,1627477545390,
2021-07-28 03:06:55 PM,-,1627477545393,
2021-07-28 03:06:55 PM,-,1627477545396,
2021-07-28 03:06:55 PM,-,1627477545400,
2021-07-28 03:06:55 PM,-,1627477545403,
2021-07-28 03:06:55 PM,-,1627477545406,
2021-07-28 03:06:55 PM,-,1627477545410,
2021-07-28 03:06:55 PM,-,1627477545413,
2021-07-28 03:06:55 PM,-,1627477545416,
2021-07-28 03:06:55 PM,-,1627477545420,
2021-07-28 03:06:55 PM,-,1627477545423,
2021-07-28 03:06:55 PM,-,1627477545426,
2021-07-28 03:06:55 PM,-,1627477545430,
2021-07-28 03:06:55 PM,-,1627477545433,
2021-07-28 03:06:55 PM,-,1627477545436,
2021-07-28 03:06:55 PM,-,1627477545440,
2021-07-28 03:06:55 PM,-,1627477545443,
2021-07-28 03:06:55 PM,-,1627477545446,
2021-07-28 03:06:55 PM,-,1627477545450,
2021-07-28 03:06:55 PM,-,1627477545453,
2021-07-28 03:06:55 PM,-,1627477545456,
2021-07-28 03:06:55 PM,-,1627477545460,
2021-07-28 03:06:55 PM,-,1627477545463,
2021-07-28 03:06:55 PM,-,1627477545466,
2021-07-28 03:06:55 PM,-,1627477545470,
2021-07-28 03:06:55 PM,-,1627477545473,
2021-07-28 03:06:55 PM,-,1627477545476,
2021-07-28 03:06:55 PM,-,1627477545480,
2021-07-28 03:06:55 PM,-,1627477545483,
2021-07-28 03:06:55 PM,-,1627477545486,
2021-07-28 03:06:55 PM,-,1627477545490,
2021-07-28 03:06:55 PM,-,1627477545493,
2021-07-28 03:06:55 PM,-,1627477545496,
2021-07-28 03:06:55 PM,-,1627477545500,
2021-07-28 03:06:55 PM,-,1627477545503,
2021-07-28 03:06:55 PM,-,1627477545506,
2021-07-28 03:06:55 PM,-,1627477545510,
2021-07-28 03:06:55 PM,-,1627477545513,
2021-07-28 03:06:55 PM,-,1627477545516,
2021-07-28 03:06:55 PM,-,1627477545520,
2021-07-28 03:06:55 PM,-,1627477545523,
2021-07-28 03:06:55 PM,-,1627477545526,
2021-07-28 03:06:55 PM,-,1627477545530,
2021-07-28 03:06:55 PM,-,1627477545533,
2021-07-28 03:06:55 PM,-,1627477545536,
2021-07-28 03:06:55 PM,-,1627477545540,
2021-07-28 03:06:55 PM,-,1627477545543,
2021-07-28 03:06:55 PM,-,1627477545546,
2021-07-28 03:06:55 PM,-,1627477545550,
2021-07-28 03:06:55 PM,-,1627477545553,
2021-07-28 03:06:55 PM,-,1627477545556,
2021-07-28 03:06:55 PM,-,1627477545560,
2021-07-28 03:06:55 PM,-,1627477545563,
2021-07-28 03:06:55 PM,-,1627477545566,
2021-07-28 03:06:55 PM,-,1627477545570,
2021-07-28 03:06:55 PM,-,1627477545573,
2021-07-28 03:06:55 PM,-,1627477545576,
2021-07-28 03:06:55 PM,-,1627477545580,
2021-07-28 03:06:55 PM,-,1627477545583,
2021-07-28 03:06:55 PM,-,1627477545586,
2021-07-28 03:06:55 PM,-,1627477545590,
2021-07-28 03:06:55 PM,-,1627477545593,
2021-07-28 03:06:55 PM,-,1627477545596,
2021-07-28 03:06:55 PM,-,1627477545600,
2021-07-28 03:06:55 PM,-,1627477545603,
2021-07-28 03:06:55 PM,-,1627477545606,
2021-07-28 03:06:55 PM,-,1627477545610,
2021-07-28 03:06:55 PM,-,1627477545613,
2021-07-28 03:06:55 PM,-,1627477545616,
2021-07-28 03:06:55 PM,-,1627477545620,
2021-07-28 03:06:55 PM,-,1627477545623,
2021-07-28 03:06:55 PM,-,1627477545626,
2021-07-28 03:06:55 PM,-,1627477545630,
2021-07-28 03:06:55 PM,-,1627477545633,
2021-07-28 03:06:55 PM,-,1627477545636,
2021-07-28 03:06:55 PM,-,1627477545640,
2021-07-28 03:06:55 PM,-,1627477545643,
2021-07-28 03:06:55 PM,-,1627477545646,
2021-07-28 03:06:55 PM,-,1627477545650,
2021-07-28 03:06:55 PM,-,1627477545653,
2021-07-28 03:06:55 PM,-,1627477545656,
2021-07-28 03:06:55 PM,-,1627477545660,
2021-07-28 03:06:55 PM,-,1627477545663,
2021-07-28 03:06:55 PM,-,1627477545666,
2021-07-28 03:06:55 PM,-,1627477545670,
2021-07-28 03:06:55 PM,-,1627477545673,
2021-07-28 03:06:55 PM,-,1627477545676,
2021-07-28 03:06:55 PM,-,1627477545680,
2021-07-28 03:06:55 PM,-,1627477545683,
2021-07-28 03:06:55 PM,-,1627477545686,
2021-07-28 03:06:55 PM,-,1627477545690,
2021-07-28 03:06:55 PM,-,1627477545693,
2021-07-28 03:06:55 PM,-,1627477545696,
2021-07-28 03:06:55 PM,-,1627477545700,
2021-07-28 03:06:55 PM,-,1627477545703,
2021-07-28 03:06:55 PM,-,1627477545706,
2021-07-28 03:06:55 PM,-,1627477545710,
2021-07-28 03:06:55 PM,-,1627477545713,
2021-07-28 03:06:55 PM,-,1627477545716,
2021-07-28 03:06:55 PM,-,1627477545720,
2021-07-28 03:06:55 PM,-,1627477545723,
2021-07-28 03:06:55 PM,-,1627477545726,
2021-07-28 03:06:55 PM,-,1627477545730,
2021-07-28 03:06:55 PM,-,1627477545733,
2021-07-28 03:06:55 PM,-,1627477545736,
2021-07-28 03:06:55 PM,-,1627477545740,
2021-07-28 03:06:55 PM,-,1627477545743,
2021-07-28 03:06:55 PM,-,1627477545746,
2021-07-28 03:06:55 PM,-,1627477545750,
2021-07-28 03:06:55 PM,-,1627477545753,
2021-07-28 03:06:55 PM,-,1627477545756,
2021-07-28 03:06:55 PM,-,1627477545760,
2021-07-28 03:06:55 PM,-,1627477545763,
2021-07-28 03:06:55 PM,-,1627477545766,
2021-07-28 03:06:55 PM,-,1627477545770,
2021-07-28 03:06:55 PM,-,1627477545773,
2021-07-28 03:06:55 PM,-,1627477545776,
2021-07-28 03:06:55 PM,-,1627477545780,
2021-07-28 03:06:55 PM,-,1627477545783,
2021-07-28 03:06:55 PM,-,1627477545786,
2021-07-28 03:06:55 PM,-,1627477545790,
2021-07-28 03:06:55 PM,-,1627477545793,
2021-07-28 03:06:55 PM,-,1627477545796,
2021-07-28 03:06:55 PM,-,1627477545800,
2021-07-28 03:06:55 PM,-,1627477545803,
2021-07-28 03:06:55 PM,-,1627477545806,
2021-07-28 03:06:55 PM,-,1627477545810,
2021-07-28 03:06:55 PM,-,1627477545813,
2021-07-28 03:06:55 PM,-,1627477545816,
2021-07-28 03:06:55 PM,-,1627477545820,
2021-07-28 03:06:55 PM,-,1627477545823,
2021-07-28 03:06:55 PM,-,1627477545826,
2021-07-28 03:06:55 PM,-,1627477545830,
2021-07-28 03:06:55 PM,-,1627477545833,
2021-07-28 03:06:55 PM,-,1627477545836,
2021-07-28 03:06:55 PM,-,1627477545840,
2021-07-28 03:06:55 PM,-,1627477545843,
2021-07-28 03:06:55 PM,-,1627477545846,
2021-07-28 03:06:55 PM,-,1627477545850,
2021-07-28 03:06:55 PM,-,1627477545853,
2021-07-28 03:06:55 PM,-,1627477545856,
2021-07-28 03:06:55 PM,-,1627477545860,
2021-07-28 03:06:55 PM,-,1627477545863,
2021-07-28 03:06:55 PM,-,1627477545866,
2021-07-28 03:06:55 PM,-,1627477545870,
2021-07-28 03:06:55 PM,-,1627477545873,
2021-07-28 03:06:55 PM,-,1627477545876,
2021-07-28 03:06:55 PM,-,1627477545880,
2021-07-28 03:06:55 PM,-,1627477545883,
2021-07-28 03:06:55 PM,-,1627477545886,
2021-07-28 03:06:55 PM,-,1627477545890,
2021-07-28 03:06:55 PM,-,1627477545893,
2021-07-28 03:06:55 PM,-,1627477545896,
2021-07-28 03:06:55 PM,-,1627477545900,
2021-07-28 03:06:55 PM,-,1627477545903,
2021-07-28 03:06:55 PM,-,1627477545906,
2021-07-28 03:06:55 PM,-,1627477545910,
2021-07-28 03:06:55 PM,-,1627477545913,
2021-07-28 03:06:55 PM,-,1627477545916,
2021-07-28 03:06:55 PM,-,1627477545920,
2021-07-28 03:06:55 PM,-,1627477545923,
2021-07-28 03:06:55 PM,-,1627477545926,
2021-07-28 03:06:55 PM,-,1627477545930,
2021-07-28 03:06:55 PM,-,1627477545933,
2021-07-28 03:06:55 PM,-,1627477545936,
2021-07-28 03:06:55 PM,-,1627477545940,
2021-07-28 03:06:55 PM,-,1627477545943,
2021-07-28 03:06:55 PM,-,1627477545946,
2021-07-28 03:06:55 PM,-,1627477545950,
2021-07-28 03:06:55 PM,-,1627477545953,
2021-07-28 03:06:55 PM,-,1627477545956,
2021-07-28 03:06:55 PM,-,1627477545960,
2021-07-28 03:06:55 PM,-,1627477545963,
2021-07-28 03:06:55 PM,-,1627477545966,
2021-07-28 03:06:55 PM,-,1627477545970,
2021-07-28 03:06:55 PM,-,1627477545973,
2021-07-28 03:06:55 PM,-,1627477545976,
2021-07-28 03:06:55 PM,-,1627477545980,
2021-07-28 03:06:55 PM,-,1627477545983,
2021-07-28 03:06:55 PM,-,1627477545986,
2021-07-28 03:06:55 PM,-,1627477545990,
2021-07-28 03:06:55 PM,-,1627477545993,
2021-07-28 03:06:55 PM,-,1627477545996,
2021-07-28 03:06:56 PM,-,1627477545000,
2021-07-28 03:06:56 PM,-,1627477545003,
2021-07-28 03:06:56 PM,-,1627477545006,
2021-07-28 03:06:56 PM,-,1627477545010,
2021-07-28 03:06:56 PM,-,1627477545013,
2021-07-28 03:06:56 PM,-,1627477545016,
2021-07-28 03:06:56 PM,-,1627477545020,
2021-07-28 03:06:56 PM,-,1627477545023,
2021-07-28 03:06:56 PM,-,1627477545026,
2021-07-28 03:06:56 PM,-,1627477545030,
2021-07-28 03:06:56 PM,-,1627477545033,
2021-07-28 03:06:56 PM,-,1627477545036,
2021-07-28 03:06:56 PM,-,1627477545040,
2021-07-28 03:06:56 PM,-,1627477545043,
2021-07-28 03:06:56 PM,-,1627477545046,
2021-07-28 03:06:56 PM,-,1627477545050,
2021-07-28 03:06:56 PM,-,1627477545053,
2021-07-28 03:06:56 PM,-,1627477545056,
2021-07-28 03:06:56 PM,-,1627477545060,
2021-07-28 03:06:56 PM,-,1627477545063,
2021-07-28 03:06:56 PM,-,1627477545066,
2021-07-28 03:06:56 PM,-,1627477545070,
2021-07-28 03:06:56 PM,-,1627477545073,
2021-07-28 03:06:56 PM,-,1627477545076,
2021-07-28 03:06:56 PM,-,1627477545080,
2021-07-28 03:06:56 PM,-,1627477545083,
2021-07-28 03:06:56 PM,-,1627477545086,
2021-07-28 03:06:56 PM,-,1627477545090,
2021-07-28 03:06:56 PM,-,1627477545093,
2021-07-28 03:06:56 PM,-,1627477545096,
2021-07-28 03:06:56 PM,-,1627477545100,
2021-07-28 03:06:56 PM,-,1627477545103,
2021-07-28 03:06:56 PM,-,1627477545106,
2021-07-28 03:06:56 PM,-,1627477545110,
2021-07-28 03:06:56 PM,-,1627477545113,
2021-07-28 03:06:56 PM,-,1627477545116,
2021-07-28 03:06:56 PM,-,1627477545120,
2021-07-28 03:06:56 PM,-,1627477545123,
2021-07-28 03:06:56 PM,-,1627477545126,
2021-07-28 03:06:56 PM,-,1627477545130,
2021-07-28 03:06:56 PM,-,1627477545133,
2021-07-28 03:06:56 PM,-,1627477545136,
2021-07-28 03:06:56 PM,-,1627477545140,
2021-07-28 03:06:56 PM,-,1627477545143,
2021-07-28 03:06:56 PM,-,1627477545146,
2021-07-28 03:06:56 PM,-,1627477545150,
2021-07-28 03:06:56 PM,-,1627477545153,
2021-07-28 03:06:56 PM,-,1627477545156,
2021-07-28 03:06:56 PM,-,1627477545160,
2021-07-28 03:06:56 PM,-,1627477545163,
2021-07-28 03:06:56 PM,-,1627477545166,
2021-07-28 03:06:56 PM,-,1627477545170,
2021-07-28 03:06:56 PM,-,1627477545173,
2021-07-28 03:06:56 PM,-,1627477545176,
2021-07-28 03:06:56 PM,-,1627477545180,
2021-07-28 03:06:56 PM,-,1627477545183,
2021-07-28 03:06:56 PM,-,1627477545186,
2021-07-28 03:06:56 PM,-,1627477545190,
2021-07-28 03:06:56 PM,-,1627477545193,
2021-07-28 03:06:56 PM,-,1627477545196,
2021-07-28 03:06:56 PM,-,1627477545200,
2021-07-28 03:06:56 PM,-,1627477545203,
2021-07-28 03:06:56 PM,-,1627477545206,
2021-07-28 03:06:56 PM,-,1627477545210,
2021-07-28 03:06:56 PM,-,1627477545213,
2021-07-28 03:06:56 PM,-,1627477545216,
2021-07-28 03:06:56 PM,-,1627477545220,
2021-07-28 03:06:56 PM,-,1627477545223,
2021-07-28 03:06:56 PM,-,1627477545226,
2021-07-28 03:06:56 PM,-,1627477545230,
2021-07-28 03:06:56 PM,-,1627477545233,
2021-07-28 03:06:56 PM,-,1627477545236,
2021-07-28 03:06:56 PM,-,1627477545240,
2021-07-28 03:06:56 PM,-,1627477545243,
2021-07-28 03:06:56 PM,-,1627477545246,
2021-07-28 03:06:56 PM,-,1627477545250,
2021-07-28 03:06:56 PM,-,1627477545253,
2021-07-28 03:06:56 PM,-,1627477545256,
2021-07-28 03:06:56 PM,-,1627477545260,
2021-07-28 03:06:56 PM,-,1627477545263,
2021-07-28 03:06:56 PM,-,1627477545266,
2021-07-28 03:06:56 PM,-,1627477545270,
2021-07-28 03:06:56 PM,-,1627477545273,
2021-07-28 03:06:56 PM,-,1627477545276,
2021-07-28 03:06:56 PM,-,1627477545280,
2021-07-28 03:06:56 PM,-,1627477545283,
2021-07-28 03:06:56 PM,-,1627477545286,
2021-07-28 03:06:56 PM,-,1627477545290,
2021-07-28 03:06:56 PM,-,1627477545293,
2021-07-28 03:06:56 PM,-,1627477545296,
2021-07-28 03:06:56 PM,-,1627477545300,
2021-07-28 03:06:56 PM,-,1627477545303,
2021-07-28 03:06:56 PM,-,1627477545306,
2021-07-28 03:06:56 PM,-,1627477545310,
2021-07-28 03:06:56 PM,-,1627477545313,
2021-07-28 03:06:56 PM,-,1627477545316,
2021-07-28 03:06:56 PM,-,1627477545320,
2021-07-28 03:06:56 PM,-,1627477545323,
2021-07-28 03:06:56 PM,-,1627477545326,
2021-07-28 03:06:56 PM,-,1627477545330,
2021-07-28 03:06:56 PM,-,1627477545333,
2021-07-28 03:06:56 PM,-,1627477545336,
2021-07-28 03:06:56 PM,-,1627477545340,
2021-07-28 03:06:56 PM,-,1627477545343,
2021-07-28 03:06:56 PM,-,1627477545346,
2021-07-28 03:06:56 PM,-,1627477545350,
2021-07-28 03:06:56 PM,-,1627477545353,
2021-07-28 03:06:56 PM,-,1627477545356,
2021-07-28 03:06:56 PM,-,1627477545360,
2021-07-28 03:06:56 PM,-,1627477545363,
2021-07-28 03:06:56 PM,-,1627477545366,
2021-07-28 03:06:56 PM,-,1627477545370,
2021-07-28 03:06:56 PM,-,1627477545373,
2021-07-28 03:06:56 PM,-,1627477545376,
2021-07-28 03:06:56 PM,-,1627477545380,
2021-07-28 03:06:56 PM,-,1627477545383,
2021-07-28 03:06:56 PM,-,1627477545386,
2021-07-28 03:06:56 PM,-,1627477545390,
2021-07-28 03:06:56 PM,-,1627477545393,
2021-07-28 03:06:56 PM,-,1627477545396,
2021-07-28 03:06:56 PM,-,1627477545400,
2021-07-28 03:06:56 PM,-,1627477545403,
2021-07-28 03:06:56 PM,-,1627477545406,
2021-07-28 03:06:56 PM,-,1627477545410,
2021-07-28 03:06:56 PM,-,1627477545413,
2021-07-28 03:06:56 PM,-,1627477545416,
2021-07-28 03:06:56 PM,-,1627477545420,
2021-07-28 03:06:56 PM,-,1627477545423,
2021-07-28 03:06:56 PM,-,1627477545426,
2021-07-28 03:06:56 PM,-,1627477545430,
2021-07-28 03:06:56 PM,-,1627477545433,
2021-07-28 03:06:56 PM,-,1627477545436,
2021-07-28 03:06:56 PM,-,1627477545440,
2021-07-28 03:06:56 PM,-,1627477545443,
2021-07-28 03:06:56 PM,-,1627477545446,
2021-07-28 03:06:56 PM,-,1627477545450,
2021-07-28 03:06:56 PM,-,1627477545453,
2021-07-28 03:06:56 PM,-,1627477545456,
2021-07-28 03:06:56 PM,-,1627477545460,
2021-07-28 03:06:56 PM,-,1627477545463,
2021-07-28 03:06:56 PM,-,1627477545466,
2021-07-28 03:06:56 PM,-,1627477545470,
2021-07-28 03:06:56 PM,-,1627477545473,
2021-07-28 03:06:56 PM,-,1627477545476,
2021-07-28 03:06:56 PM,-,1627477545480,
2021-07-28 03:06:56 PM,-,1627477545483,
2021-07-28 03:06:56 PM,-,1627477545486,
2021-07-28 03:06:56 PM,-,1627477545490,
2021-07-28 03:06:56 PM,-,1627477545493,
2021-07-28 03:06:56 PM,-,1627477545496,
2021-07-28 03:06:56 PM,-,1627477545500,
2021-07-28 03:06:56 PM,-,1627477545503,
2021-07-28 03:06:56 PM,-,1627477545506,
2021-07-28 03:06:56 PM,-,1627477545510,
2021-07-28 03:06:56 PM,-,1627477545513,
2021-07-28 03:06:56 PM,-,1627477545516,
2021-07-28 03:06:56 PM,-,1627477545520,
2021-07-28 03:06:56 PM,-,1627477545523,
2021-07-28 03:06:56 PM,-,1627477545526,
2021-07-28 03:06:56 PM,-,1627477545530,
2021-07-28 03:06:56 PM,-,1627477545533,
2021-07-28 03:06:56 PM,-,1627477545536,
2021-07-28 03:06:56 PM,-,1627477545540,
2021-07-28 03:06:56 PM,-,1627477545543,
2021-07-28 03:06:56 PM,-,1627477545546,
2021-07-28 03:06:56 PM,-,1627477545550,
2021-07-28 03:06:56 PM,-,1627477545553,
2021-07-28 03:06:56 PM,-,1627477545556,
2021-07-28 03:06:56 PM,-,1627477545560,
2021-07-28 03:06:56 PM,-,1627477545563,
2021-07-28 03:06:56 PM,-,1627477545566,
2021-07-28 03:06:56 PM,-,1627477545570,
2021-07-28 03:06:56 PM,-,1627477545573,
2021-07-28 03:06:56 PM,-,1627477545576,
2021-07-28 03:06:56 PM,-,1627477545580,
2021-07-28 03:06:56 PM,-,1627477545583,
2021-07-28 03:06:56 PM,-,1627477545586,
2021-07-28 03:06:56 PM,-,1627477545590,
2021-07-28 03:06:56 PM,-,1627477545593,
2021-07-28 03:06:56 PM,-,1627477545596,
2021-07-28 03:06:56 PM,-,1627477545600,
2021-07-28 03:06:56 PM,-,1627477545603,
2021-07-28 03:06:56 PM,-,1627477545606,
2021-07-28 03:06:56 PM,-,1627477545610,
2021-07-28 03:06:56 PM,-,1627477545613,
2021-07-28 03:06:56 PM,-,1627477545616,
2021-07-28 03:06:56 PM,-,1627477545620,
2021-07-28 03:06:56 PM,-,1627477545623,
2021-07-28 03:06:56 PM,-,1627477545626,
2021-07-28 03:06:56 PM,-,1627477545630,
2021-07-28 03:06:56 PM,-,1627477545633,
2021-07-28 03:06:56 PM,-,1627477545636,
2021-07-28 03:06:56 PM,-,1627477545640,
2021-07-28 03:06:56 PM,-,1627477545643,
2021-07-28 03:06:56 PM,-,1627477545646,
2021-07-28 03:06:56 PM,-,1627477545650,
2021-07-28 03:06:56 PM,-,1627477545653,
2021-07-28 03:06:56 PM,-,1627477545656,
2021-07-28 03:06:56 PM,-,1627477545660,
2021-07-28 03:06:56 PM,-,1627477545663,
2021-07-28 03:06:56 PM,-,1627477545666,
2021-07-28 03:06:56 PM,-,1627477545670,
2021-07-28 03:06:56 PM,-,1627477545673,
2021-07-28 03:06:56 PM,-,1627477545676,
2021-07-28 03:06:56 PM,-,1627477545680,
2021-07-28 03:06:56 PM,-,1627477545683,
2021-07-28 03:06:56 PM,-,1627477545686,
2021-07-28 03:06:56 PM,-,1627477545690,
2021-07-28 03:06:56 PM,-,1627477545693,
2021-07-28 03:06:56 PM,-,1627477545696,
2021-07-28 03:06:56 PM,-,1627477545700,
2021-07-28 03:06:56 PM,-,1627477545703,
2021-07-28 03:06:56 PM,-,1627477545706,
2021-07-28 03:06:56 PM,-,1627477545710,
2021-07-28 03:06:56 PM,-,1627477545713,
2021-07-28 03:06:56 PM,-,1627477545716,
2021-07-28 03:06:56 PM,-,1627477545720,
2021-07-28 03:06:56 PM,-,1627477545723,
2021-07-28 03:06:56 PM,-,1627477545726,
2021-07-28 03:06:56 PM,-,1627477545730,
2021-07-28 03:06:56 PM,-,1627477545733,
2021-07-28 03:06:56 PM,-,1627477545736,
2021-07-28 03:06:56 PM,-,1627477545740,
2021-07-28 03:06:56 PM,-,1627477545743,
2021-07-28 03:06:56 PM,-,1627477545746,
2021-07-28 03:06:56 PM,-,1627477545750,
2021-07-28 03:06:56 PM,-,1627477545753,
2021-07-28 03:06:56 PM,-,1627477545756,
2021-07-28 03:06:56 PM,-,1627477545760,
2021-07-28 03:06:56 PM,-,1627477545763,
2021-07-28 03:06:56 PM,-,1627477545766,
2021-07-28 03:06:56 PM,-,1627477545770,
2021-07-28 03:06:56 PM,-,1627477545773,
2021-07-28 03:06:56 PM,-,1627477545776,
2021-07-28 03:06:56 PM,-,1627477545780,
2021-07-28 03:06:56 PM,-,1627477545783,
2021-07-28 03:06:56 PM,-,1627477545786,
2021-07-28 03:06:56 PM,-,1627477545790,
2021-07-28 03:06:56 PM,-,1627477545793,
2021-07-28 03:06:56 PM,-,1627477545796,
2021-07-28 03:06:56 PM,-,1627477545800,
2021-07-28 03:06:56 PM,-,1627477545803,
2021-07-28 03:06:56 PM,-,1627477545806,
2021-07-28 03:06:56 PM,-,1627477545810,
2021-07-28 03:06:56 PM,-,1627477545813,
2021-07-28 03:06:56 PM,-,1627477545816,
2021-07-28 03:06:56 PM,-,1627477545820,
2021-07-28 03:06:56 PM,-,1627477545823,
2021-07-28 03:06:56 PM,-,1627477545826,
2021-07-28 03:06:56 PM,-,1627477545830,
2021-07-28 03:06:56 PM,-,1627477545833,
2021-07-28 03:06:56 PM,-,1627477545836,
2021-07-28 03:06:56 PM,-,1627477545840,
2021-07-28 03:06:56 PM,-,1627477545843,
2021-07-28 03:06:56 PM,-,1627477545846,
2021-07-28 03:06:56 PM,-,1627477545850,
2021-07-28 03:06:56 PM,-,1627477545853,
2021-07-28 03:06:56 PM,-,1627477545856,
2021-07-28 03:06:56 PM,-,1627477545860,
2021-07-28 03:06:56 PM,-,1627477545863,
2021-07-28 03:06:56 PM,-,1627477545866,
2021-07-28 03:06:56 PM,-,1627477545870,
2021-07-28 03:06:56 PM,-,1627477545873,
2021-07-28 03:06:56 PM,-,1627477545876,
2021-07-28 03:06:56 PM,-,1627477545880,
2021-07-28 03:06:56 PM,-,1627477545883,
2021-07-28 03:06:56 PM,-,1627477545886,
2021-07-28 03:06:56 PM,-,1627477545890,
2021-07-28 03:06:56 PM,-,1627477545893,
2021-07-28 03:06:56 PM,-,1627477545896,
2021-07-28 03:06:56 PM,-,1627477545900,
2021-07-28 03:06:56 PM,-,1627477545903,
2021-07-28 03:06:56 PM,-,1627477545906,
2021-07-28 03:06:56 PM,-,1627477545910,
2021-07-28 03:06:56 PM,-,1627477545913,
2021-07-28 03:06:56 PM,-,1627477545916,
2021-07-28 03:06:56 PM,-,1627477545920,
2021-07-28 03:06:56 PM,-,1627477545923,
2021-07-28 03:06:56 PM,-,1627477545926,
2021-07-28 03:06:56 PM,-,1627477545930,
2021-07-28 03:06:56 PM,-,1627477545933,
2021-07-28 03:06:56 PM,-,1627477545936,
2021-07-28 03:06:56 PM,-,1627477545940,
2021-07-28 03:06:56 PM,-,1627477545943,
2021-07-28 03:06:56 PM,-,1627477545946,
2021-07-28 03:06:56 PM,-,1627477545950,
2021-07-28 03:06:56 PM,-,1627477545953,
2021-07-28 03:06:56 PM,-,1627477545956,
2021-07-28 03:06:56 PM,-,1627477545960,
2021-07-28 03:06:56 PM,-,1627477545963,
2021-07-28 03:06:56 PM,-,1627477545966,
2021-07-28 03:06:56 PM,-,1627477545970,
2021-07-28 03:06:56 PM,-,1627477545973,
2021-07-28 03:06:56 PM,-,1627477545976,
2021-07-28 03:06:56 PM,-,1627477545980,
2021-07-28 03:06:56 PM,-,1627477545983,
2021-07-28 03:06:56 PM,-,1627477545986,
2021-07-28 03:06:56 PM,-,1627477545990,
2021-07-28 03:06:56 PM,-,1627477545993,
2021-07-28 03:06:56 PM,-,1627477545996,
2021-07-28 03:06:57 PM,-,1627477545000,
2021-07-28 03:06:57 PM,-,1627477545003,
2021-07-28 03:06:57 PM,-,1627477545006,
2021-07-28 03:06:57 PM,-,1627477545010,
2021-07-28 03:06:57 PM,-,1627477545013,
2021-07-28 03:06:57 PM,-,1627477545016,
2021-07-28 03:06:57 PM,-,1627477545020,
2021-07-28 03:06:57 PM,-,1627477545023,
2021-07-28 03:06:57 PM,-,1627477545026,
2021-07-28 03:06:57 PM,-,1627477545030,
2021-07-28 03:06:57 PM,-,1627477545033,
2021-07-28 03:06:57 PM,-,1627477545036,
2021-07-28 03:06:57 PM,-,1627477545040,
2021-07-28 03:06:57 PM,-,1627477545043,
2021-07-28 03:06:57 PM,-,1627477545046,
2021-07-28 03:06:57 PM,-,1627477545050,
2021-07-28 03:06:57 PM,-,1627477545053,
2021-07-28 03:06:57 PM,-,1627477545056,
2021-07-28 03:06:57 PM,-,1627477545060,
2021-07-28 03:06:57 PM,-,1627477545063,
2021-07-28 03:06:57 PM,-,1627477545066,
2021-07-28 03:06:57 PM,-,1627477545070,
2021-07-28 03:06:57 PM,-,1627477545073,
2021-07-28 03:06:57 PM,-,1627477545076,
2021-07-28 03:06:57 PM,-,1627477545080,
2021-07-28 03:06:57 PM,-,1627477545083,
2021-07-28 03:06:57 PM,-,1627477545086,
2021-07-28 03:06:57 PM,-,1627477545090,
2021-07-28 03:06:57 PM,-,1627477545093,
2021-07-28 03:06:57 PM,-,1627477545096,
2021-07-28 03:06:57 PM,-,1627477545100,
2021-07-28 03:06:57 PM,-,1627477545103,
2021-07-28 03:06:57 PM,-,1627477545106,
2021-07-28 03:06:57 PM,-,1627477545110,
2021-07-28 03:06:57 PM,-,1627477545113,
2021-07-28 03:06:57 PM,-,1627477545116,
2021-07-28 03:06:57 PM,-,1627477545120,
2021-07-28 03:06:57 PM,-,1627477545123,
2021-07-28 03:06:57 PM,-,1627477545126,
2021-07-28 03:06:57 PM,-,1627477545130,
2021-07-28 03:06:57 PM,-,1627477545133,
2021-07-28 03:06:57 PM,-,1627477545136,
2021-07-28 03:06:57 PM,-,1627477545140,
2021-07-28 03:06:57 PM,-,1627477545143,
2021-07-28 03:06:57 PM,-,1627477545146,
2021-07-28 03:06:57 PM,-,1627477545150,
2021-07-28 03:06:57 PM,-,1627477545153,
2021-07-28 03:06:57 PM,-,1627477545156,
2021-07-28 03:06:57 PM,-,1627477545160,
2021-07-28 03:06:57 PM,-,1627477545163,
2021-07-28 03:06:57 PM,-,1627477545166,
2021-07-28 03:06:57 PM,-,1627477545170,
2021-07-28 03:06:57 PM,-,1627477545173,
2021-07-28 03:06:57 PM,-,1627477545176,
2021-07-28 03:06:57 PM,-,1627477545180,
2021-07-28 03:06:57 PM,-,1627477545183,
2021-07-28 03:06:57 PM,-,1627477545186,
2021-07-28 03:06:57 PM,-,1627477545190,
2021-07-28 03:06:57 PM,-,1627477545193,
2021-07-28 03:06:57 PM,-,1627477545196,
2021-07-28 03:06:57 PM,-,1627477545200,
2021-07-28 03:06:57 PM,-,1627477545203,
2021-07-28 03:06:57 PM,-,1627477545206,
2021-07-28 03:06:57 PM,-,1627477545210,
2021-07-28 03:06:57 PM,-,1627477545213,
2021-07-28 03:06:57 PM,-,1627477545216,
2021-07-28 03:06:57 PM,-,1627477545220,
2021-07-28 03:06:57 PM,-,1627477545223,
2021-07-28 03:06:57 PM,-,1627477545226,
2021-07-28 03:06:57 PM,-,1627477545230,
2021-07-28 03:06:57 PM,-,1627477545233,
2021-07-28 03:06:57 PM,-,1627477545236,
2021-07-28 03:06:57 PM,-,1627477545240,
2021-07-28 03:06:57 PM,-,1627477545243,
2021-07-28 03:06:57 PM,-,1627477545246,
2021-07-28 03:06:57 PM,-,1627477545250,
2021-07-28 03:06:57 PM,-,1627477545253,
2021-07-28 03:06:57 PM,-,1627477545256,
2021-07-28 03:06:57 PM,-,1627477545260,
2021-07-28 03:06:57 PM,-,1627477545263,
2021-07-28 03:06:57 PM,-,1627477545266,
2021-07-28 03:06:57 PM,-,1627477545270,
2021-07-28 03:06:57 PM,-,1627477545273,
2021-07-28 03:06:57 PM,-,1627477545276,
2021-07-28 03:06:57 PM,-,1627477545280,
2021-07-28 03:06:57 PM,-,1627477545283,
2021-07-28 03:06:57 PM,-,1627477545286,
2021-07-28 03:06:57 PM,-,1627477545290,
2021-07-28 03:06:57 PM,-,1627477545293,
2021-07-28 03:06:57 PM,-,1627477545296,
2021-07-28 03:06:57 PM,-,1627477545300,
2021-07-28 03:06:57 PM,-,1627477545303,
2021-07-28 03:06:57 PM,-,1627477545306,
2021-07-28 03:06:57 PM,-,1627477545310,
2021-07-28 03:06:57 PM,-,1627477545313,
2021-07-28 03:06:57 PM,-,1627477545316,
2021-07-28 03:06:57 PM,-,1627477545320,
2021-07-28 03:06:57 PM,-,1627477545323,
2021-07-28 03:06:57 PM,-,1627477545326,
2021-07-28 03:06:57 PM,-,1627477545330,
2021-07-28 03:06:57 PM,-,1627477545333,
2021-07-28 03:06:57 PM,-,1627477545336,
2021-07-28 03:06:57 PM,-,1627477545340,
2021-07-28 03:06:57 PM,-,1627477545343,
2021-07-28 03:06:57 PM,-,1627477545346,
2021-07-28 03:06:57 PM,-,1627477545350,
2021-07-28 03:06:57 PM,-,1627477545353,
2021-07-28 03:06:57 PM,-,1627477545356,
2021-07-28 03:06:57 PM,-,1627477545360,
2021-07-28 03:06:57 PM,-,1627477545363,
2021-07-28 03:06:57 PM,-,1627477545366,
2021-07-28 03:06:57 PM,-,1627477545370,
2021-07-28 03:06:57 PM,-,1627477545373,
2021-07-28 03:06:57 PM,-,1627477545376,
2021-07-28 03:06:57 PM,-,1627477545380,
2021-07-28 03:06:57 PM,-,1627477545383,
2021-07-28 03:06:57 PM,-,1627477545386,
2021-07-28 03:06:57 PM,-,1627477545390,
2021-07-28 03:06:57 PM,-,1627477545393,
2021-07-28 03:06:57 PM,-,1627477545396,
2021-07-28 03:06:57 PM,-,1627477545400,
2021-07-28 03:06:57 PM,-,1627477545403,
2021-07-28 03:06:57 PM,-,1627477545406,
2021-07-28 03:06:57 PM,-,1627477545410,
2021-07-28 03:06:57 PM,-,1627477545413,
2021-07-28 03:06:57 PM,-,1627477545416,
2021-07-28 03:06:57 PM,-,1627477545420,
2021-07-28 03:06:57 PM,-,1627477545423,
2021-07-28 03:06:57 PM,-,1627477545426,
2021-07-28 03:06:57 PM,-,1627477545430,
2021-07-28 03:06:57 PM,-,1627477545433,
2021-07-28 03:06:57 PM,-,1627477545436,
2021-07-28 03:06:57 PM,-,1627477545440,
2021-07-28 03:06:57 PM,-,1627477545443,
2021-07-28 03:06:57 PM,-,1627477545446,
2021-07-28 03:06:57 PM,-,1627477545450,
2021-07-28 03:06:57 PM,-,1627477545453,
2021-07-28 03:06:57 PM,-,1627477545456,
2021-07-28 03:06:57 PM,-,1627477545460,
2021-07-28 03:06:57 PM,-,1627477545463,
2021-07-28 03:06:57 PM,-,1627477545466,
2021-07-28 03:06:57 PM,-,1627477545470,
2021-07-28 03:06:57 PM,-,1627477545473,
2021-07-28 03:06:57 PM,-,1627477545476,
2021-07-28 03:06:57 PM,-,1627477545480,
2021-07-28 03:06:57 PM,-,1627477545483,
2021-07-28 03:06:57 PM,-,1627477545486,
2021-07-28 03:06:57 PM,-,1627477545490,
2021-07-28 03:06:57 PM,-,1627477545493,
2021-07-28 03:06:57 PM,-,1627477545496,
2021-07-28 03:06:57 PM,-,1627477545500,
2021-07-28 03:06:57 PM,-,1627477545503,
2021-07-28 03:06:57 PM,-,1627477545506,
2021-07-28 03:06:57 PM,-,1627477545510,
2021-07-28 03:06:57 PM,-,1627477545513,
2021-07-28 03:06:57 PM,-,1627477545516,
2021-07-28 03:06:57 PM,-,1627477545520,
2021-07-28 03:06:57 PM,-,1627477545523,
2021-07-28 03:06:57 PM,-,1627477545526,
2021-07-28 03:06:57 PM,-,1627477545530,
2021-07-28 03:06:57 PM,-,1627477545533,
2021-07-28 03:06:57 PM,-,1627477545536,
2021-07-28 03:06:57 PM,-,1627477545540,
2021-07-28 03:06:57 PM,-,1627477545543,
2021-07-28 03:06:57 PM,-,1627477545546,
2021-07-28 03:06:57 PM,-,1627477545550,
2021-07-28 03:06:57 PM,-,1627477545553,
2021-07-28 03:06:57 PM,-,1627477545556,
2021-07-28 03:06:57 PM,-,1627477545560,
2021-07-28 03:06:57 PM,-,1627477545563,
2021-07-28 03:06:57 PM,-,1627477545566,
2021-07-28 03:06:57 PM,-,1627477545570,
2021-07-28 03:06:57 PM,-,1627477545573,
2021-07-28 03:06:57 PM,-,1627477545576,
2021-07-28 03:06:57 PM,-,1627477545580,
2021-07-28 03:06:57 PM,-,1627477545583,
2021-07-28 03:06:57 PM,-,1627477545586,
2021-07-28 03:06:57 PM,-,1627477545590,
2021-07-28 03:06:57 PM,-,1627477545593,
2021-07-28 03:06:57 PM,-,1627477545596,
2021-07-28 03:06:57 PM,-,1627477545600,
2021-07-28 03:06:57 PM,-,1627477545603,
2021-07-28 03:06:57 PM,-,1627477545606,
2021-07-28 03:06:57 PM,-,1627477545610,
2021-07-28 03:06:57 PM,-,1627477545613,
2021-07-28 03:06:57 PM,-,1627477545616,
2021-07-28 03:06:57 PM,-,1627477545620,
2021-07-28 03:06:57 PM,-,1627477545623,
2021-07-28 03:06:57 PM,-,1627477545626,
2021-07-28 03:06:57 PM,-,1627477545630,
2021-07-28 03:06:57 PM,-,1627477545633,
2021-07-28 03:06:57 PM,-,1627477545636,
2021-07-28 03:06:57 PM,-,1627477545640,
2021-07-28 03:06:57 PM,-,1627477545643,
2021-07-28 03:06:57 PM,-,1627477545646,
2021-07-28 03:06:57 PM,-,1627477545650,
2021-07-28 03:06:57 PM,-,1627477545653,
2021-07-28 03:06:57 PM,-,1627477545656,
2021-07-28 03:06:57 PM,-,1627477545660,
2021-07-28 03:06:57 PM,-,1627477545663,
2021-07-28 03:06:57 PM,-,1627477545666,
2021-07-28 03:06:57 PM,-,1627477545670,
2021-07-28 03:06:57 PM,-,1627477545673,
2021-07-28 03:06:57 PM,-,1627477545676,
2021-07-28 03:06:57 PM,-,1627477545680,
2021-07-28 03:06:57 PM,-,1627477545683,
2021-07-28 03:06:57 PM,-,1627477545686,
2021-07-28 03:06:57 PM,-,1627477545690,
2021-07-28 03:06:57 PM,-,1627477545693,
2021-07-28 03:06:57 PM,-,1627477545696,
2021-07-28 03:06:57 PM,-,1627477545700,
2021-07-28 03:06:57 PM,-,1627477545703,
2021-07-28 03:06:57 PM,-,1627477545706,
2021-07-28 03:06:57 PM,-,1627477545710,
2021-07-28 03:06:57 PM,-,1627477545713,
2021-07-28 03:06:57 PM,-,1627477545716,
2021-07-28 03:06:57 PM,-,1627477545720,
2021-07-28 03:06:57 PM,-,1627477545723,
2021-07-28 03:06:57 PM,-,1627477545726,
2021-07-28 03:06:57 PM,-,1627477545730,
2021-07-28 03:06:57 PM,-,1627477545733,
2021-07-28 03:06:57 PM,-,1627477545736,
2021-07-28 03:06:57 PM,-,1627477545740,
2021-07-28 03:06:57 PM,-,1627477545743,
2021-07-28 03:06:57 PM,-,1627477545746,
2021-07-28 03:06:57 PM,-,1627477545750,
2021-07-28 03:06:57 PM,-,1627477545753,
2021-07-28 03:06:57 PM,-,1627477545756,
2021-07-28 03:06:57 PM,-,1627477545760,
2021-07-28 03:06:57 PM,-,1627477545763,
2021-07-28 03:06:57 PM,-,1627477545766,
2021-07-28 03:06:57 PM,-,1627477545770,
2021-07-28 03:06:57 PM,-,1627477545773,
2021-07-28 03:06:57 PM,-,1627477545776,
2021-07-28 03:06:57 PM,-,1627477545780,
2021-07-28 03:06:57 PM,-,1627477545783,
2021-07-28 03:06:57 PM,-,1627477545786,
2021-07-28 03:06:57 PM,-,1627477545790,
2021-07-28 03:06:57 PM,-,1627477545793,
2021-07-28 03:06:57 PM,-,1627477545796,
2021-07-28 03:06:57 PM,-,1627477545800,
2021-07-28 03:06:57 PM,-,1627477545803,
2021-07-28 03:06:57 PM,-,1627477545806,
2021-07-28 03:06:57 PM,-,1627477545810,
2021-07-28 03:06:57 PM,-,1627477545813,
2021-07-28 03:06:57 PM,-,1627477545816,
2021-07-28 03:06:57 PM,-,1627477545820,
2021-07-28 03:06:57 PM,-,1627477545823,
2021-07-28 03:06:57 PM,-,1627477545826,
2021-07-28 03:06:57 PM,-,1627477545830,
2021-07-28 03:06:57 PM,-,1627477545833,
2021-07-28 03:06:57 PM,-,1627477545836,
2021-07-28 03:06:57 PM,-,1627477545840,
2021-07-28 03:06:57 PM,-,1627477545843,
2021-07-28 03:06:57 PM,-,1627477545846,
2021-07-28 03:06:57 PM,-,1627477545850,
2021-07-28 03:06:57 PM,-,1627477545853,
2021-07-28 03:06:57 PM,-,1627477545856,
2021-07-28 03:06:57 PM,-,1627477545860,
2021-07-28 03:06:57 PM,-,1627477545863,
2021-07-28 03:06:57 PM,-,1627477545866,
2021-07-28 03:06:57 PM,-,1627477545870,
2021-07-28 03:06:57 PM,-,1627477545873,
2021-07-28 03:06:57 PM,-,1627477545876,
2021-07-28 03:06:57 PM,-,1627477545880,
2021-07-28 03:06:57 PM,-,1627477545883,
2021-07-28 03:06:57 PM,-,1627477545886,
2021-07-28 03:06:57 PM,-,1627477545890,
2021-07-28 03:06:57 PM,-,1627477545893,
2021-07-28 03:06:57 PM,-,1627477545896,
2021-07-28 03:06:57 PM,-,1627477545900,
2021-07-28 03:06:57 PM,-,1627477545903,
2021-07-28 03:06:57 PM,-,1627477545906,
2021-07-28 03:06:57 PM,-,1627477545910,
2021-07-28 03:06:57 PM,-,1627477545913,
2021-07-28 03:06:57 PM,-,1627477545916,
2021-07-28 03:06:57 PM,-,1627477545920,
2021-07-28 03:06:57 PM,-,1627477545923,
2021-07-28 03:06:57 PM,-,1627477545926,
2021-07-28 03:06:57 PM,-,1627477545930,
2021-07-28 03:06:57 PM,-,1627477545933,
2021-07-28 03:06:57 PM,-,1627477545936,
2021-07-28 03:06:57 PM,-,1627477545940,
2021-07-28 03:06:57 PM,-,1627477545943,
2021-07-28 03:06:57 PM,-,1627477545946,
2021-07-28 03:06:57 PM,-,1627477545950,
2021-07-28 03:06:57 PM,-,1627477545953,
2021-07-28 03:06:57 PM,-,1627477545956,
2021-07-28 03:06:57 PM,-,1627477545960,
2021-07-28 03:06:57 PM,-,1627477545963,
2021-07-28 03:06:57 PM,-,1627477545966,
2021-07-28 03:06:57 PM,-,1627477545970,
2021-07-28 03:06:57 PM,-,1627477545973,
2021-07-28 03:06:57 PM,-,1627477545976,
2021-07-28 03:06:57 PM,-,1627477545980,
2021-07-28 03:06:57 PM,-,1627477545983,
2021-07-28 03:06:57 PM,-,1627477545986,
2021-07-28 03:06:57 PM,-,1627477545990,
2021-07-28 03:06:57 PM,-,1627477545993,
2021-07-28 03:06:57 PM,-,1627477545996,
2021-07-28 03:06:58 PM,-,1627477545000,
2021-07-28 03:06:58 PM,-,1627477545003,
2021-07-28 03:06:58 PM,-,1627477545006,
2021-07-28 03:06:58 PM,-,1627477545010,
2021-07-28 03:06:58 PM,-,1627477545013,
2021-07-28 03:06:58 PM,-,1627477545016,
2021-07-28 03:06:58 PM,-,1627477545020,
2021-07-28 03:06:58 PM,-,1627477545023,
2021-07-28 03:06:58 PM,-,1627477545026,
2021-07-28 03:06:58 PM,-,1627477545030,
2021-07-28 03:06:58 PM,-,1627477545033,
2021-07-28 03:06:58 PM,-,1627477545036,
2021-07-28 03:06:58 PM,-,1627477545040,
2021-07-28 03:06:58 PM,-,1627477545043,
2021-07-28 03:06:58 PM,-,1627477545046,
2021-07-28 03:06:58 PM,-,1627477545050,
2021-07-28 03:06:58 PM,-,1627477545053,
2021-07-28 03:06:58 PM,-,1627477545056,
2021-07-28 03:06:58 PM,-,1627477545060,
2021-07-28 03:06:58 PM,-,1627477545063,
2021-07-28 03:06:58 PM,-,1627477545066,
2021-07-28 03:06:58 PM,-,1627477545070,
2021-07-28 03:06:58 PM,-,1627477545073,
2021-07-28 03:06:58 PM,-,1627477545076,
2021-07-28 03:06:58 PM,-,1627477545080,
2021-07-28 03:06:58 PM,-,1627477545083,
2021-07-28 03:06:58 PM,-,1627477545086,
2021-07-28 03:06:58 PM,-,1627477545090,
2021-07-28 03:06:58 PM,-,1627477545093,
2021-07-28 03:06:58 PM,-,1627477545096,
2021-07-28 03:06:58 PM,-,1627477545100,
2021-07-28 03:06:58 PM,-,1627477545103,
2021-07-28 03:06:58 PM,-,1627477545106,
2021-07-28 03:06:58 PM,-,1627477545110,
2021-07-28 03:06:58 PM,-,1627477545113,
2021-07-28 03:06:58 PM,-,1627477545116,
2021-07-28 03:06:58 PM,-,1627477545120,
2021-07-28 03:06:58 PM,-,1627477545123,
2021-07-28 03:06:58 PM,-,1627477545126,
2021-07-28 03:06:58 PM,-,1627477545130,
2021-07-28 03:06:58 PM,-,1627477545133,
2021-07-28 03:06:58 PM,-,1627477545136,
2021-07-28 03:06:58 PM,-,1627477545140,
2021-07-28 03:06:58 PM,-,1627477545143,
2021-07-28 03:06:58 PM,-,1627477545146,
2021-07-28 03:06:58 PM,-,1627477545150,
2021-07-28 03:06:58 PM,-,1627477545153,
2021-07-28 03:06:58 PM,-,1627477545156,
2021-07-28 03:06:58 PM,-,1627477545160,
2021-07-28 03:06:58 PM,-,1627477545163,
2021-07-28 03:06:58 PM,-,1627477545166,
2021-07-28 03:06:58 PM,-,1627477545170,
2021-07-28 03:06:58 PM,-,1627477545173,
2021-07-28 03:06:58 PM,-,1627477545176,
2021-07-28 03:06:58 PM,-,1627477545180,
2021-07-28 03:06:58 PM,-,1627477545183,
2021-07-28 03:06:58 PM,-,1627477545186,
2021-07-28 03:06:58 PM,-,1627477545190,
2021-07-28 03:06:58 PM,-,1627477545193,
2021-07-28 03:06:58 PM,-,1627477545196,
2021-07-28 03:06:58 PM,-,1627477545200,
2021-07-28 03:06:58 PM,-,1627477545203,
2021-07-28 03:06:58 PM,-,1627477545206,
2021-07-28 03:06:58 PM,-,1627477545210,
2021-07-28 03:06:58 PM,-,1627477545213,
2021-07-28 03:06:58 PM,-,1627477545216,
2021-07-28 03:06:58 PM,-,1627477545220,
2021-07-28 03:06:58 PM,-,1627477545223,
2021-07-28 03:06:58 PM,-,1627477545226,
2021-07-28 03:06:58 PM,-,1627477545230,
2021-07-28 03:06:58 PM,-,1627477545233,
2021-07-28 03:06:58 PM,-,1627477545236,
2021-07-28 03:06:58 PM,-,1627477545240,
2021-07-28 03:06:58 PM,-,1627477545243,
2021-07-28 03:06:58 PM,-,1627477545246,
2021-07-28 03:06:58 PM,-,1627477545250,
2021-07-28 03:06:58 PM,-,1627477545253,
2021-07-28 03:06:58 PM,-,1627477545256,
2021-07-28 03:06:58 PM,-,1627477545260,
2021-07-28 03:06:58 PM,-,1627477545263,
2021-07-28 03:06:58 PM,-,1627477545266,
2021-07-28 03:06:58 PM,-,1627477545270,
2021-07-28 03:06:58 PM,-,1627477545273,
2021-07-28 03:06:58 PM,-,1627477545276,
2021-07-28 03:06:58 PM,-,1627477545280,
2021-07-28 03:06:58 PM,-,1627477545283,
2021-07-28 03:06:58 PM,-,1627477545286,
2021-07-28 03:06:58 PM,-,1627477545290,
2021-07-28 03:06:58 PM,-,1627477545293,
2021-07-28 03:06:58 PM,-,1627477545296,
2021-07-28 03:06:58 PM,-,1627477545300,
2021-07-28 03:06:58 PM,-,1627477545303,
2021-07-28 03:06:58 PM,-,1627477545306,
2021-07-28 03:06:58 PM,-,1627477545310,
2021-07-28 03:06:58 PM,-,1627477545313,
2021-07-28 03:06:58 PM,-,1627477545316,
2021-07-28 03:06:58 PM,-,1627477545320,
2021-07-28 03:06:58 PM,-,1627477545323,
2021-07-28 03:06:58 PM,-,1627477545326,
2021-07-28 03:06:58 PM,-,1627477545330,
2021-07-28 03:06:58 PM,-,1627477545333,
2021-07-28 03:06:58 PM,-,1627477545336,
2021-07-28 03:06:58 PM,-,1627477545340,
2021-07-28 03:06:58 PM,-,1627477545343,
2021-07-28 03:06:58 PM,-,1627477545346,
2021-07-28 03:06:58 PM,-,1627477545350,
2021-07-28 03:06:58 PM,-,1627477545353,
2021-07-28 03:06:58 PM,-,1627477545356,
2021-07-28 03:06:58 PM,-,1627477545360,
2021-07-28 03:06:58 PM,-,1627477545363,
2021-07-28 03:06:58 PM,-,1627477545366,
2021-07-28 03:06:58 PM,-,1627477545370,
2021-07-28 03:06:58 PM,-,1627477545373,
2021-07-28 03:06:58 PM,-,1627477545376,
2021-07-28 03:06:58 PM,-,1627477545380,
2021-07-28 03:06:58 PM,-,1627477545383,
2021-07-28 03:06:58 PM,-,1627477545386,
2021-07-28 03:06:58 PM,-,1627477545390,
2021-07-28 03:06:58 PM,-,1627477545393,
2021-07-28 03:06:58 PM,-,1627477545396,
2021-07-28 03:06:58 PM,-,1627477545400,
2021-07-28 03:06:58 PM,-,1627477545403,
2021-07-28 03:06:58 PM,-,1627477545406,
2021-07-28 03:06:58 PM,-,1627477545410,
2021-07-28 03:06:58 PM,-,1627477545413,
2021-07-28 03:06:58 PM,-,1627477545416,
2021-07-28 03:06:58 PM,-,1627477545420,
2021-07-28 03:06:58 PM,-,1627477545423,
2021-07-28 03:06:58 PM,-,1627477545426,
2021-07-28 03:06:58 PM,-,1627477545430,
2021-07-28 03:06:58 PM,-,1627477545433,
2021-07-28 03:06:58 PM,-,1627477545436,
2021-07-28 03:06:58 PM,-,1627477545440,
2021-07-28 03:06:58 PM,-,1627477545443,
2021-07-28 03:06:58 PM,-,1627477545446,
2021-07-28 03:06:58 PM,-,1627477545450,
2021-07-28 03:06:58 PM,-,1627477545453,
2021-07-28 03:06:58 PM,-,1627477545456,
2021-07-28 03:06:58 PM,-,1627477545460,
2021-07-28 03:06:58 PM,-,1627477545463,
2021-07-28 03:06:58 PM,-,1627477545466,
2021-07-28 03:06:58 PM,-,1627477545470,
2021-07-28 03:06:58 PM,-,1627477545473,
2021-07-28 03:06:58 PM,-,1627477545476,
2021-07-28 03:06:58 PM,-,1627477545480,
2021-07-28 03:06:58 PM,-,1627477545483,
2021-07-28 03:06:58 PM,-,1627477545486,
2021-07-28 03:06:58 PM,-,1627477545490,
2021-07-28 03:06:58 PM,-,1627477545493,
2021-07-28 03:06:58 PM,-,1627477545496,
2021-07-28 03:06:58 PM,-,1627477545500,
2021-07-28 03:06:58 PM,-,1627477545503,
2021-07-28 03:06:58 PM,-,1627477545506,
2021-07-28 03:06:58 PM,-,1627477545510,
2021-07-28 03:06:58 PM,-,1627477545513,
2021-07-28 03:06:58 PM,-,1627477545516,
2021-07-28 03:06:58 PM,-,1627477545520,
2021-07-28 03:06:58 PM,-,1627477545523,
2021-07-28 03:06:58 PM,-,1627477545526,
2021-07-28 03:06:58 PM,-,1627477545530,
2021-07-28 03:06:58 PM,-,1627477545533,
2021-07-28 03:06:58 PM,-,1627477545536,
2021-07-28 03:06:58 PM,-,1627477545540,
2021-07-28 03:06:58 PM,-,1627477545543,
2021-07-28 03:06:58 PM,-,1627477545546,
2021-07-28 03:06:58 PM,-,1627477545550,
2021-07-28 03:06:58 PM,-,1627477545553,
2021-07-28 03:06:58 PM,-,1627477545556,
2021-07-28 03:06:58 PM,-,1627477545560,
2021-07-28 03:06:58 PM,-,1627477545563,
2021-07-28 03:06:58 PM,-,1627477545566,
2021-07-28 03:06:58 PM,-,1627477545570,
2021-07-28 03:06:58 PM,-,1627477545573,
2021-07-28 03:06:58 PM,-,1627477545576,
2021-07-28 03:06:58 PM,-,1627477545580,
2021-07-28 03:06:58 PM,-,1627477545583,
2021-07-28 03:06:58 PM,-,1627477545586,
2021-07-28 03:06:58 PM,-,1627477545590,
2021-07-28 03:06:58 PM,-,1627477545593,
2021-07-28 03:06:58 PM,-,1627477545596,
2021-07-28 03:06:58 PM,-,1627477545600,
2021-07-28 03:06:58 PM,-,1627477545603,
2021-07-28 03:06:58 PM,-,1627477545606,
2021-07-28 03:06:58 PM,-,1627477545610,
2021-07-28 03:06:58 PM,-,1627477545613,
2021-07-28 03:06:58 PM,-,1627477545616,
2021-07-28 03:06:58 PM,-,1627477545620,
2021-07-28 03:06:58 PM,-,1627477545623,
2021-07-28 03:06:58 PM,-,1627477545626,
2021-07-28 03:06:58 PM,-,1627477545630,
2021-07-28 03:06:58 PM,-,1627477545633,
2021-07-28 03:06:58 PM,-,1627477545636,
2021-07-28 03:06:58 PM,-,1627477545640,
2021-07-28 03:06:58 PM,-,1627477545643,
2021-07-28 03:06:58 PM,-,1627477545646,
2021-07-28 03:06:58 PM,-,1627477545650,
2021-07-28 03:06:58 PM,-,1627477545653,
2021-07-28 03:06:58 PM,-,1627477545656,
2021-07-28 03:06:58 PM,-,1627477545660,
2021-07-28 03:06:58 PM,-,1627477545663,
2021-07-28 03:06:58 PM,-,1627477545666,
2021-07-28 03:06:58 PM,-,1627477545670,
2021-07-28 03:06:58 PM,-,1627477545673,
2021-07-28 03:06:58 PM,-,1627477545676,
2021-07-28 03:06:58 PM,-,1627477545680,
2021-07-28 03:06:58 PM,-,1627477545683,
2021-07-28 03:06:58 PM,-,1627477545686,
2021-07-28 03:06:58 PM,-,1627477545690,
2021-07-28 03:06:58 PM,-,1627477545693,
2021-07-28 03:06:58 PM,-,1627477545696,
2021-07-28 03:06:58 PM,-,1627477545700,
2021-07-28 03:06:58 PM,-,1627477545703,
2021-07-28 03:06:58 PM,-,1627477545706,
2021-07-28 03:06:58 PM,-,1627477545710,
2021-07-28 03:06:58 PM,-,1627477545713,
2021-07-28 03:06:58 PM,-,1627477545716,
2021-07-28 03:06:58 PM,-,1627477545720,
2021-07-28 03:06:58 PM,-,1627477545723,
2021-07-28 03:06:58 PM,-,1627477545726,
2021-07-28 03:06:58 PM,-,1627477545730,
2021-07-28 03:06:58 PM,-,1627477545733,
2021-07-28 03:06:58 PM,-,1627477545736,
2021-07-28 03:06:58 PM,-,1627477545740,
2021-07-28 03:06:58 PM,-,1627477545743,
2021-07-28 03:06:58 PM,-,1627477545746,
2021-07-28 03:06:58 PM,-,1627477545750,
2021-07-28 03:06:58 PM,-,1627477545753,
2021-07-28 03:06:58 PM,-,1627477545756,
2021-07-28 03:06:58 PM,-,1627477545760,
2021-07-28 03:06:58 PM,-,1627477545763,
2021-07-28 03:06:58 PM,-,1627477545766,
2021-07-28 03:06:58 PM,-,1627477545770,
2021-07-28 03:06:58 PM,-,1627477545773,
2021-07-28 03:06:58 PM,-,1627477545776,
2021-07-28 03:06:58 PM,-,1627477545780,
2021-07-28 03:06:58 PM,-,1627477545783,
2021-07-28 03:06:58 PM,-,1627477545786,
2021-07-28 03:06:58 PM,-,1627477545790,
2021-07-28 03:06:58 PM,-,1627477545793,
2021-07-28 03:06:58 PM,-,1627477545796,
2021-07-28 03:06:58 PM,-,1627477545800,
2021-07-28 03:06:58 PM,-,1627477545803,
2021-07-28 03:06:58 PM,-,1627477545806,
2021-07-28 03:06:58 PM,-,1627477545810,
2021-07-28 03:06:58 PM,-,1627477545813,
2021-07-28 03:06:58 PM,-,1627477545816,
2021-07-28 03:06:58 PM,-,1627477545820,
2021-07-28 03:06:58 PM,-,1627477545823,
2021-07-28 03:06:58 PM,-,1627477545826,
2021-07-28 03:06:58 PM,-,1627477545830,
2021-07-28 03:06:58 PM,-,1627477545833,
2021-07-28 03:06:58 PM,-,1627477545836,
2021-07-28 03:06:58 PM,-,1627477545840,
2021-07-28 03:06:58 PM,-,1627477545843,
2021-07-28 03:06:58 PM,-,1627477545846,
2021-07-28 03:06:58 PM,-,1627477545850,
2021-07-28 03:06:58 PM,-,1627477545853,
2021-07-28 03:06:58 PM,-,1627477545856,
2021-07-28 03:06:58 PM,-,1627477545860,
2021-07-28 03:06:58 PM,-,1627477545863,
2021-07-28 03:06:58 PM,-,1627477545866,
2021-07-28 03:06:58 PM,-,1627477545870,
2021-07-28 03:06:58 PM,-,1627477545873,
2021-07-28 03:06:58 PM,-,1627477545876,
2021-07-28 03:06:58 PM,-,1627477545880,
2021-07-28 03:06:58 PM,-,1627477545883,
2021-07-28 03:06:58 PM,-,1627477545886,
2021-07-28 03:06:58 PM,-,1627477545890,
2021-07-28 03:06:58 PM,-,1627477545893,
2021-07-28 03:06:58 PM,-,1627477545896,
2021-07-28 03:06:58 PM,-,1627477545900,
2021-07-28 03:06:58 PM,-,1627477545903,
2021-07-28 03:06:58 PM,-,1627477545906,
2021-07-28 03:06:58 PM,-,1627477545910,
2021-07-28 03:06:58 PM,-,1627477545913,
2021-07-28 03:06:58 PM,-,1627477545916,
2021-07-28 03:06:58 PM,-,1627477545920,
2021-07-28 03:06:58 PM,-,1627477545923,
2021-07-28 03:06:58 PM,-,1627477545926,
2021-07-28 03:06:58 PM,-,1627477545930,
2021-07-28 03:06:58 PM,-,1627477545933,
2021-07-28 03:06:58 PM,-,1627477545936,
2021-07-28 03:06:58 PM,-,1627477545940,
2021-07-28 03:06:58 PM,-,1627477545943,
2021-07-28 03:06:58 PM,-,1627477545946,
2021-07-28 03:06:58 PM,-,1627477545950,
2021-07-28 03:06:58 PM,-,1627477545953,
2021-07-28 03:06:58 PM,-,1627477545956,
2021-07-28 03:06:58 PM,-,1627477545960,
2021-07-28 03:06:58 PM,-,1627477545963,
2021-07-28 03:06:58 PM,-,1627477545966,
2021-07-28 03:06:58 PM,-,1627477545970,
2021-07-28 03:06:58 PM,-,1627477545973,
2021-07-28 03:06:58 PM,-,1627477545976,
2021-07-28 03:06:58 PM,-,1627477545980,
2021-07-28 03:06:58 PM,-,1627477545983,
2021-07-28 03:06:58 PM,-,1627477545986,
2021-07-28 03:06:58 PM,-,1627477545990,
2021-07-28 03:06:58 PM,-,1627477545993,
2021-07-28 03:06:58 PM,-,1627477545996,
2021-07-28 03:06:59 PM,-,1627477545000,
2021-07-28 03:06:59 PM,-,1627477545003,
2021-07-28 03:06:59 PM,-,1627477545006,
2021-07-28 03:06:59 PM,-,1627477545010,
2021-07-28 03:06:59 PM,-,1627477545013,
2021-07-28 03:06:59 PM,-,1627477545016,
2021-07-28 03:06:59 PM,-,1627477545020,
2021-07-28 03:06:59 PM,-,1627477545023,
2021-07-28 03:06:59 PM,-,1627477545026,
2021-07-28 03:06:59 PM,-,1627477545030,
2021-07-28 03:06:59 PM,-,1627477545033,
2021-07-28 03:06:59 PM,-,1627477545036,
2021-07-28 03:06:59 PM,-,1627477545040,
2021-07-28 03:06:59 PM,-,1627477545043,
2021-07-28 03:06:59 PM,-,1627477545046,
2021-07-28 03:06:59 PM,-,1627477545050,
2021-07-28 03:06:59 PM,-,1627477545053,
2021-07-28 03:06:59 PM,-,1627477545056,
2021-07-28 03:06:59 PM,-,1627477545060,
2021-07-28 03:06:59 PM,-,1627477545063,
2021-07-28 03:06:59 PM,-,1627477545066,
2021-07-28 03:06:59 PM,-,1627477545070,
2021-07-28 03:06:59 PM,-,1627477545073,
2021-07-28 03:06:59 PM,-,1627477545076,
2021-07-28 03:06:59 PM,-,1627477545080,
2021-07-28 03:06:59 PM,-,1627477545083,
2021-07-28 03:06:59 PM,-,1627477545086,
2021-07-28 03:06:59 PM,-,1627477545090,
2021-07-28 03:06:59 PM,-,1627477545093,
2021-07-28 03:06:59 PM,-,1627477545096,
2021-07-28 03:06:59 PM,-,1627477545100,
2021-07-28 03:06:59 PM,-,1627477545103,
2021-07-28 03:06:59 PM,-,1627477545106,
2021-07-28 03:06:59 PM,-,1627477545110,
2021-07-28 03:06:59 PM,-,1627477545113,
2021-07-28 03:06:59 PM,-,1627477545116,
2021-07-28 03:06:59 PM,-,1627477545120,
2021-07-28 03:06:59 PM,-,1627477545123,
2021-07-28 03:06:59 PM,-,1627477545126,
2021-07-28 03:06:59 PM,-,1627477545130,
2021-07-28 03:06:59 PM,-,1627477545133,
2021-07-28 03:06:59 PM,-,1627477545136,
2021-07-28 03:06:59 PM,-,1627477545140,
2021-07-28 03:06:59 PM,-,1627477545143,
2021-07-28 03:06:59 PM,-,1627477545146,
2021-07-28 03:06:59 PM,-,1627477545150,
2021-07-28 03:06:59 PM,-,1627477545153,
2021-07-28 03:06:59 PM,-,1627477545156,
2021-07-28 03:06:59 PM,-,1627477545160,
2021-07-28 03:06:59 PM,-,1627477545163,
2021-07-28 03:06:59 PM,-,1627477545166,
2021-07-28 03:06:59 PM,-,1627477545170,
2021-07-28 03:06:59 PM,-,1627477545173,
2021-07-28 03:06:59 PM,-,1627477545176,
2021-07-28 03:06:59 PM,-,1627477545180,
2021-07-28 03:06:59 PM,-,1627477545183,
2021-07-28 03:06:59 PM,-,1627477545186,
2021-07-28 03:06:59 PM,-,1627477545190,
2021-07-28 03:06:59 PM,-,1627477545193,
2021-07-28 03:06:59 PM,-,1627477545196,
2021-07-28 03:06:59 PM,-,1627477545200,
2021-07-28 03:06:59 PM,-,1627477545203,
2021-07-28 03:06:59 PM,-,1627477545206,
2021-07-28 03:06:59 PM,-,1627477545210,
2021-07-28 03:06:59 PM,-,1627477545213,
2021-07-28 03:06:59 PM,-,1627477545216,
2021-07-28 03:06:59 PM,-,1627477545220,
2021-07-28 03:06:59 PM,-,1627477545223,
2021-07-28 03:06:59 PM,-,1627477545226,
2021-07-28 03:06:59 PM,-,1627477545230,
2021-07-28 03:06:59 PM,-,1627477545233,
2021-07-28 03:06:59 PM,-,1627477545236,
2021-07-28 03:06:59 PM,-,1627477545240,
2021-07-28 03:06:59 PM,-,1627477545243,
2021-07-28 03:06:59 PM,-,1627477545246,
2021-07-28 03:06:59 PM,-,1627477545250,
2021-07-28 03:06:59 PM,-,1627477545253,
2021-07-28 03:06:59 PM,-,1627477545256,
2021-07-28 03:06:59 PM,-,1627477545260,
2021-07-28 03:06:59 PM,-,1627477545263,
2021-07-28 03:06:59 PM,-,1627477545266,
2021-07-28 03:06:59 PM,-,1627477545270,
2021-07-28 03:06:59 PM,-,1627477545273,
2021-07-28 03:06:59 PM,-,1627477545276,
2021-07-28 03:06:59 PM,-,1627477545280,
2021-07-28 03:06:59 PM,-,1627477545283,
2021-07-28 03:06:59 PM,-,1627477545286,
2021-07-28 03:06:59 PM,-,1627477545290,
2021-07-28 03:06:59 PM,-,1627477545293,
2021-07-28 03:06:59 PM,-,1627477545296,
2021-07-28 03:06:59 PM,-,1627477545300,
2021-07-28 03:06:59 PM,-,1627477545303,
2021-07-28 03:06:59 PM,-,1627477545306,
2021-07-28 03:06:59 PM,-,1627477545310,
2021-07-28 03:06:59 PM,-,1627477545313,
2021-07-28 03:06:59 PM,-,1627477545316,
2021-07-28 03:06:59 PM,-,1627477545320,
2021-07-28 03:06:59 PM,-,1627477545323,
2021-07-28 03:06:59 PM,-,1627477545326,
2021-07-28 03:06:59 PM,-,1627477545330,
2021-07-28 03:06:59 PM,-,1627477545333,
2021-07-28 03:06:59 PM,-,1627477545336,
2021-07-28 03:06:59 PM,-,1627477545340,
2021-07-28 03:06:59 PM,-,1627477545343,
2021-07-28 03:06:59 PM,-,1627477545346,
2021-07-28 03:06:59 PM,-,1627477545350,
2021-07-28 03:06:59 PM,-,1627477545353,
2021-07-28 03:06:59 PM,-,1627477545356,
2021-07-28 03:06:59 PM,-,1627477545360,
2021-07-28 03:06:59 PM,-,1627477545363,
2021-07-28 03:06:59 PM,-,1627477545366,
2021-07-28 03:06:59 PM,-,1627477545370,
2021-07-28 03:06:59 PM,-,1627477545373,
2021-07-28 03:06:59 PM,-,1627477545376,
2021-07-28 03:06:59 PM,-,1627477545380,
2021-07-28 03:06:59 PM,-,1627477545383,
2021-07-28 03:06:59 PM,-,1627477545386,
2021-07-28 03:06:59 PM,-,1627477545390,
2021-07-28 03:06:59 PM,-,1627477545393,
2021-07-28 03:06:59 PM,-,1627477545396,
2021-07-28 03:06:59 PM,-,1627477545400,
2021-07-28 03:06:59 PM,-,1627477545403,
2021-07-28 03:06:59 PM,-,1627477545406,
2021-07-28 03:06:59 PM,-,1627477545410,
2021-07-28 03:06:59 PM,-,1627477545413,
2021-07-28 03:06:59 PM,-,1627477545416,
2021-07-28 03:06:59 PM,-,1627477545420,
2021-07-28 03:06:59 PM,-,1627477545423,
2021-07-28 03:06:59 PM,-,1627477545426,
2021-07-28 03:06:59 PM,-,1627477545430,
2021-07-28 03:06:59 PM,-,1627477545433,
2021-07-28 03:06:59 PM,-,1627477545436,
2021-07-28 03:06:59 PM,-,1627477545440,
2021-07-28 03:06:59 PM,-,1627477545443,
2021-07-28 03:06:59 PM,-,1627477545446,
2021-07-28 03:06:59 PM,-,1627477545450,
2021-07-28 03:06:59 PM,-,1627477545453,
2021-07-28 03:06:59 PM,-,1627477545456,
2021-07-28 03:06:59 PM,-,1627477545460,
2021-07-28 03:06:59 PM,-,1627477545463,
2021-07-28 03:06:59 PM,-,1627477545466,
2021-07-28 03:06:59 PM,-,1627477545470,
2021-07-28 03:06:59 PM,-,1627477545473,
2021-07-28 03:06:59 PM,-,1627477545476,
2021-07-28 03:06:59 PM,-,1627477545480,
2021-07-28 03:06:59 PM,-,1627477545483,
2021-07-28 03:06:59 PM,-,1627477545486,
2021-07-28 03:06:59 PM,-,1627477545490,
2021-07-28 03:06:59 PM,-,1627477545493,
2021-07-28 03:06:59 PM,-,1627477545496,
2021-07-28 03:06:59 PM,-,1627477545500,
2021-07-28 03:06:59 PM,-,1627477545503,
2021-07-28 03:06:59 PM,-,1627477545506,
2021-07-28 03:06:59 PM,-,1627477545510,
2021-07-28 03:06:59 PM,-,1627477545513,
2021-07-28 03:06:59 PM,-,1627477545516,
2021-07-28 03:06:59 PM,-,1627477545520,
2021-07-28 03:06:59 PM,-,1627477545523,
2021-07-28 03:06:59 PM,-,1627477545526,
2021-07-28 03:06:59 PM,-,1627477545530,
2021-07-28 03:06:59 PM,-,1627477545533,
2021-07-28 03:06:59 PM,-,1627477545536,
2021-07-28 03:06:59 PM,-,1627477545540,
2021-07-28 03:06:59 PM,-,1627477545543,
2021-07-28 03:06:59 PM,-,1627477545546,
2021-07-28 03:06:59 PM,-,1627477545550,
2021-07-28 03:06:59 PM,-,1627477545553,
2021-07-28 03:06:59 PM,-,1627477545556,
2021-07-28 03:06:59 PM,-,1627477545560,
2021-07-28 03:06:59 PM,-,1627477545563,
2021-07-28 03:06:59 PM,-,1627477545566,
2021-07-28 03:06:59 PM,-,1627477545570,
2021-07-28 03:06:59 PM,-,1627477545573,
2021-07-28 03:06:59 PM,-,1627477545576,
2021-07-28 03:06:59 PM,-,1627477545580,
2021-07-28 03:06:59 PM,-,1627477545583,
2021-07-28 03:06:59 PM,-,1627477545586,
2021-07-28 03:06:59 PM,-,1627477545590,
2021-07-28 03:06:59 PM,-,1627477545593,
2021-07-28 03:06:59 PM,-,1627477545596,
2021-07-28 03:06:59 PM,-,1627477545600,
2021-07-28 03:06:59 PM,-,1627477545603,
2021-07-28 03:06:59 PM,-,1627477545606,
2021-07-28 03:06:59 PM,-,1627477545610,
2021-07-28 03:06:59 PM,-,1627477545613,
2021-07-28 03:06:59 PM,-,1627477545616,
2021-07-28 03:06:59 PM,-,1627477545620,
2021-07-28 03:06:59 PM,-,1627477545623,
2021-07-28 03:06:59 PM,-,1627477545626,
2021-07-28 03:06:59 PM,-,1627477545630,
2021-07-28 03:06:59 PM,-,1627477545633,
2021-07-28 03:06:59 PM,-,1627477545636,
2021-07-28 03:06:59 PM,-,1627477545640,
2021-07-28 03:06:59 PM,-,1627477545643,
2021-07-28 03:06:59 PM,-,1627477545646,
2021-07-28 03:06:59 PM,-,1627477545650,
2021-07-28 03:06:59 PM,-,1627477545653,
2021-07-28 03:06:59 PM,-,1627477545656,
2021-07-28 03:06:59 PM,-,1627477545660,
2021-07-28 03:06:59 PM,-,1627477545663,
2021-07-28 03:06:59 PM,-,1627477545666,
2021-07-28 03:06:59 PM,-,1627477545670,
2021-07-28 03:06:59 PM,-,1627477545673,
2021-07-28 03:06:59 PM,-,1627477545676,
2021-07-28 03:06:59 PM,-,1627477545680,
2021-07-28 03:06:59 PM,-,1627477545683,
2021-07-28 03:06:59 PM,-,1627477545686,
2021-07-28 03:06:59 PM,-,1627477545690,
2021-07-28 03:06:59 PM,-,1627477545693,
2021-07-28 03:06:59 PM,-,1627477545696,
2021-07-28 03:06:59 PM,-,1627477545700,
2021-07-28 03:06:59 PM,-,1627477545703,
2021-07-28 03:06:59 PM,-,1627477545706,
2021-07-28 03:06:59 PM,-,1627477545710,
2021-07-28 03:06:59 PM,-,1627477545713,
2021-07-28 03:06:59 PM,-,1627477545716,
2021-07-28 03:06:59 PM,-,1627477545720,
2021-07-28 03:06:59 PM,-,1627477545723,
2021-07-28 03:06:59 PM,-,1627477545726,
2021-07-28 03:06:59 PM,-,1627477545730,
2021-07-28 03:06:59 PM,-,1627477545733,
2021-07-28 03:06:59 PM,-,1627477545736,
2021-07-28 03:06:59 PM,-,1627477545740,
2021-07-28 03:06:59 PM,-,1627477545743,
2021-07-28 03:06:59 PM,-,1627477545746,
2021-07-28 03:06:59 PM,-,1627477545750,
2021-07-28 03:06:59 PM,-,1627477545753,
2021-07-28 03:06:59 PM,-,1627477545756,
2021-07-28 03:06:59 PM,-,1627477545760,
2021-07-28 03:06:59 PM,-,1627477545763,
2021-07-28 03:06:59 PM,-,1627477545766,
2021-07-28 03:06:59 PM,-,1627477545770,
2021-07-28 03:06:59 PM,-,1627477545773,
2021-07-28 03:06:59 PM,-,1627477545776,
2021-07-28 03:06:59 PM,-,1627477545780,
2021-07-28 03:06:59 PM,-,1627477545783,
2021-07-28 03:06:59 PM,-,1627477545786,
2021-07-28 03:06:59 PM,-,1627477545790,
2021-07-28 03:06:59 PM,-,1627477545793,
2021-07-28 03:06:59 PM,-,1627477545796,
2021-07-28 03:06:59 PM,-,1627477545800,
2021-07-28 03:06:59 PM,-,1627477545803,
2021-07-28 03:06:59 PM,-,1627477545806,
2021-07-28 03:06:59 PM,-,1627477545810,
2021-07-28 03:06:59 PM,-,1627477545813,
2021-07-28 03:06:59 PM,-,1627477545816,
2021-07-28 03:06:59 PM,-,1627477545820,
2021-07-28 03:06:59 PM,-,1627477545823,
2021-07-28 03:06:59 PM,-,1627477545826,
2021-07-28 03:06:59 PM,-,1627477545830,
2021-07-28 03:06:59 PM,-,1627477545833,
2021-07-28 03:06:59 PM,-,1627477545836,
2021-07-28 03:06:59 PM,-,1627477545840,
2021-07-28 03:06:59 PM,-,1627477545843,
2021-07-28 03:06:59 PM,-,1627477545846,
2021-07-28 03:06:59 PM,-,1627477545850,
2021-07-28 03:06:59 PM,-,1627477545853,
2021-07-28 03:06:59 PM,-,1627477545856,
2021-07-28 03:06:59 PM,-,1627477545860,
2021-07-28 03:06:59 PM,-,1627477545863,
2021-07-28 03:06:59 PM,-,1627477545866,
2021-07-28 03:06:59 PM,-,1627477545870,
2021-07-28 03:06:59 PM,-,1627477545873,
2021-07-28 03:06:59 PM,-,1627477545876,
2021-07-28 03:06:59 PM,-,1627477545880,
2021-07-28 03:06:59 PM,-,1627477545883,
2021-07-28 03:06:59 PM,-,1627477545886,
2021-07-28 03:06:59 PM,-,1627477545890,
2021-07-28 03:06:59 PM,-,1627477545893,
2021-07-28 03:06:59 PM,-,1627477545896,
2021-07-28 03:06:59 PM,-,1627477545900,
2021-07-28 03:06:59 PM,-,1627477545903,
2021-07-28 03:06:59 PM,-,1627477545906,
2021-07-28 03:06:59 PM,-,1627477545910,
2021-07-28 03:06:59 PM,-,1627477545913,
2021-07-28 03:06:59 PM,-,1627477545916,
2021-07-28 03:06:59 PM,-,1627477545920,
2021-07-28 03:06:59 PM,-,1627477545923,
2021-07-28 03:06:59 PM,-,1627477545926,
2021-07-28 03:06:59 PM,-,1627477545930,
2021-07-28 03:06:59 PM,-,1627477545933,
2021-07-28 03:06:59 PM,-,1627477545936,
2021-07-28 03:06:59 PM,-,1627477545940,
2021-07-28 03:06:59 PM,-,1627477545943,
2021-07-28 03:06:59 PM,-,1627477545946,
2021-07-28 03:06:59 PM,-,1627477545950,
2021-07-28 03:06:59 PM,-,1627477545953,
2021-07-28 03:06:59 PM,-,1627477545956,
2021-07-28 03:06:59 PM,-,1627477545960,
2021-07-28 03:06:59 PM,-,1627477545963,
2021-07-28 03:06:59 PM,-,1627477545966,
2021-07-28 03:06:59 PM,-,1627477545970,
2021-07-28 03:06:59 PM,-,1627477545973,
2021-07-28 03:06:59 PM,-,1627477545976,
2021-07-28 03:06:59 PM,-,1627477545980,
2021-07-28 03:06:59 PM,-,1627477545983,
2021-07-28 03:06:59 PM,-,1627477545986,
2021-07-28 03:06:59 PM,-,1627477545990,
2021-07-28 03:06:59 PM,-,1627477545993,
2021-07-28 03:06:59 PM,-,1627477545996,
