2021-05-26 01:29:42 PM,-,1622028502000,
2021-05-26 01:29:42 PM,-,1622028502003,
2021-05-26 01:29:42 PM,-,1622028502006,
2021-05-26 01:29:42 PM,-,1622028502010,
2021-05-26 01:29:42 PM,-,1622028502013,
2021-05-26 01:29:42 PM,-,1622028502016,
2021-05-26 01:29:42 PM,-,1622028502020,
2021-05-26 01:29:42 PM,-,1622028502023,
2021-05-26 01:29:42 PM,-,1622028502026,
2021-05-26 01:29:42 PM,-,1622028502030,
2021-05-26 01:29:42 PM,-,1622028502033,
2021-05-26 01:29:42 PM,-,1622028502036,
2021-05-26 01:29:42 PM,-,1622028502040,
2021-05-26 01:29:42 PM,-,1622028502043,
2021-05-26 01:29:42 PM,-,1622028502046,
2021-05-26 01:29:42 PM,-,1622028502050,
2021-05-26 01:29:42 PM,-,1622028502053,
2021-05-26 01:29:42 PM,-,1622028502056,
2021-05-26 01:29:42 PM,-,1622028502060,
2021-05-26 01:29:42 PM,-,1622028502063,
2021-05-26 01:29:42 PM,-,1622028502066,
2021-05-26 01:29:42 PM,-,1622028502070,
2021-05-26 01:29:42 PM,-,1622028502073,
2021-05-26 01:29:42 PM,-,1622028502076,
2021-05-26 01:29:42 PM,-,1622028502080,
2021-05-26 01:29:42 PM,-,1622028502083,
2021-05-26 01:29:42 PM,-,1622028502086,
2021-05-26 01:29:42 PM,-,1622028502090,
2021-05-26 01:29:42 PM,-,1622028502093,
2021-05-26 01:29:42 PM,-,1622028502096,
2021-05-26 01:29:42 PM,-,1622028502100,
2021-05-26 01:29:42 PM,-,1622028502103,
2021-05-26 01:29:42 PM,-,1622028502106,
2021-05-26 01:29:42 PM,-,1622028502110,
2021-05-26 01:29:42 PM,-,1622028502113,
2021-05-26 01:29:42 PM,-,1622028502116,
2021-05-26 01:29:42 PM,-,1622028502120,
2021-05-26 01:29:42 PM,-,1622028502123,
2021-05-26 01:29:42 PM,-,1622028502126,
2021-05-26 01:29:42 PM,-,1622028502130,
2021-05-26 01:29:42 PM,-,1622028502133,
2021-05-26 01:29:42 PM,-,1622028502136,
2021-05-26 01:29:42 PM,-,1622028502140,
2021-05-26 01:29:42 PM,-,1622028502143,
2021-05-26 01:29:42 PM,-,1622028502146,
2021-05-26 01:29:42 PM,-,1622028502150,
2021-05-26 01:29:42 PM,-,1622028502153,
2021-05-26 01:29:42 PM,-,1622028502156,
2021-05-26 01:29:42 PM,-,1622028502160,
2021-05-26 01:29:42 PM,-,1622028502163,
2021-05-26 01:29:42 PM,-,1622028502166,
2021-05-26 01:29:42 PM,-,1622028502170,
2021-05-26 01:29:42 PM,-,1622028502173,
2021-05-26 01:29:42 PM,-,1622028502176,
2021-05-26 01:29:42 PM,-,1622028502180,
2021-05-26 01:29:42 PM,-,1622028502183,
2021-05-26 01:29:42 PM,-,1622028502186,
2021-05-26 01:29:42 PM,-,1622028502190,
2021-05-26 01:29:42 PM,-,1622028502193,
2021-05-26 01:29:42 PM,-,1622028502196,
2021-05-26 01:29:42 PM,-,1622028502200,
2021-05-26 01:29:42 PM,-,1622028502203,
2021-05-26 01:29:42 PM,-,1622028502206,
2021-05-26 01:29:42 PM,-,1622028502210,
2021-05-26 01:29:42 PM,-,1622028502213,
2021-05-26 01:29:42 PM,-,1622028502216,
2021-05-26 01:29:42 PM,-,1622028502220,
2021-05-26 01:29:42 PM,-,1622028502223,
2021-05-26 01:29:42 PM,-,1622028502226,
2021-05-26 01:29:42 PM,-,1622028502230,
2021-05-26 01:29:42 PM,-,1622028502233,
2021-05-26 01:29:42 PM,-,1622028502236,
2021-05-26 01:29:42 PM,-,1622028502240,
2021-05-26 01:29:42 PM,-,1622028502243,
2021-05-26 01:29:42 PM,-,1622028502246,
2021-05-26 01:29:42 PM,-,1622028502250,
2021-05-26 01:29:42 PM,-,1622028502253,
2021-05-26 01:29:42 PM,-,1622028502256,
2021-05-26 01:29:42 PM,-,1622028502260,
2021-05-26 01:29:42 PM,-,1622028502263,
2021-05-26 01:29:42 PM,-,1622028502266,
2021-05-26 01:29:42 PM,-,1622028502270,
2021-05-26 01:29:42 PM,-,1622028502273,
2021-05-26 01:29:42 PM,-,1622028502276,
2021-05-26 01:29:42 PM,-,1622028502280,
2021-05-26 01:29:42 PM,-,1622028502283,
2021-05-26 01:29:42 PM,-,1622028502286,
2021-05-26 01:29:42 PM,-,1622028502290,
2021-05-26 01:29:42 PM,-,1622028502293,
2021-05-26 01:29:42 PM,-,1622028502296,
2021-05-26 01:29:42 PM,-,1622028502300,
2021-05-26 01:29:42 PM,-,1622028502303,
2021-05-26 01:29:42 PM,-,1622028502306,
2021-05-26 01:29:42 PM,-,1622028502310,
2021-05-26 01:29:42 PM,-,1622028502313,
2021-05-26 01:29:42 PM,-,1622028502316,
2021-05-26 01:29:42 PM,-,1622028502320,
2021-05-26 01:29:42 PM,-,1622028502323,
2021-05-26 01:29:42 PM,-,1622028502326,
2021-05-26 01:29:42 PM,-,1622028502330,
2021-05-26 01:29:42 PM,-,1622028502333,
2021-05-26 01:29:42 PM,-,1622028502336,
2021-05-26 01:29:42 PM,-,1622028502340,
2021-05-26 01:29:42 PM,-,1622028502343,
2021-05-26 01:29:42 PM,-,1622028502346,
2021-05-26 01:29:42 PM,-,1622028502350,
2021-05-26 01:29:42 PM,-,1622028502353,
2021-05-26 01:29:42 PM,-,1622028502356,
2021-05-26 01:29:42 PM,-,1622028502360,
2021-05-26 01:29:42 PM,-,1622028502363,
2021-05-26 01:29:42 PM,-,1622028502366,
2021-05-26 01:29:42 PM,-,1622028502370,
2021-05-26 01:29:42 PM,-,1622028502373,
2021-05-26 01:29:42 PM,-,1622028502376,
2021-05-26 01:29:42 PM,-,1622028502380,
2021-05-26 01:29:42 PM,-,1622028502383,
2021-05-26 01:29:42 PM,-,1622028502386,
2021-05-26 01:29:42 PM,-,1622028502390,
2021-05-26 01:29:42 PM,-,1622028502393,
2021-05-26 01:29:42 PM,-,1622028502396,
2021-05-26 01:29:42 PM,-,1622028502400,
2021-05-26 01:29:42 PM,-,1622028502403,
2021-05-26 01:29:42 PM,-,1622028502406,
2021-05-26 01:29:42 PM,-,1622028502410,
2021-05-26 01:29:42 PM,-,1622028502413,
2021-05-26 01:29:42 PM,-,1622028502416,
2021-05-26 01:29:42 PM,-,1622028502420,
2021-05-26 01:29:42 PM,-,1622028502423,
2021-05-26 01:29:42 PM,-,1622028502426,
2021-05-26 01:29:42 PM,-,1622028502430,
2021-05-26 01:29:42 PM,-,1622028502433,
2021-05-26 01:29:42 PM,-,1622028502436,
2021-05-26 01:29:42 PM,-,1622028502440,
2021-05-26 01:29:42 PM,-,1622028502443,
2021-05-26 01:29:42 PM,-,1622028502446,
2021-05-26 01:29:42 PM,-,1622028502450,
2021-05-26 01:29:42 PM,-,1622028502453,
2021-05-26 01:29:42 PM,-,1622028502456,
2021-05-26 01:29:42 PM,-,1622028502460,
2021-05-26 01:29:42 PM,-,1622028502463,
2021-05-26 01:29:42 PM,-,1622028502466,
2021-05-26 01:29:42 PM,-,1622028502470,
2021-05-26 01:29:42 PM,-,1622028502473,
2021-05-26 01:29:42 PM,-,1622028502476,
2021-05-26 01:29:42 PM,-,1622028502480,
2021-05-26 01:29:42 PM,-,1622028502483,
2021-05-26 01:29:42 PM,-,1622028502486,
2021-05-26 01:29:42 PM,-,1622028502490,
2021-05-26 01:29:42 PM,-,1622028502493,
2021-05-26 01:29:42 PM,-,1622028502496,
2021-05-26 01:29:42 PM,-,1622028502500,
2021-05-26 01:29:42 PM,-,1622028502503,
2021-05-26 01:29:42 PM,-,1622028502506,
2021-05-26 01:29:42 PM,-,1622028502510,
2021-05-26 01:29:42 PM,-,1622028502513,
2021-05-26 01:29:42 PM,-,1622028502516,
2021-05-26 01:29:42 PM,-,1622028502520,
2021-05-26 01:29:42 PM,-,1622028502523,
2021-05-26 01:29:42 PM,-,1622028502526,
2021-05-26 01:29:42 PM,-,1622028502530,
2021-05-26 01:29:42 PM,-,1622028502533,
2021-05-26 01:29:42 PM,-,1622028502536,
2021-05-26 01:29:42 PM,-,1622028502540,
2021-05-26 01:29:42 PM,-,1622028502543,
2021-05-26 01:29:42 PM,-,1622028502546,
2021-05-26 01:29:42 PM,-,1622028502550,
2021-05-26 01:29:42 PM,-,1622028502553,
2021-05-26 01:29:42 PM,-,1622028502556,
2021-05-26 01:29:42 PM,-,1622028502560,
2021-05-26 01:29:42 PM,-,1622028502563,
2021-05-26 01:29:42 PM,-,1622028502566,
2021-05-26 01:29:42 PM,-,1622028502570,
2021-05-26 01:29:42 PM,-,1622028502573,
2021-05-26 01:29:42 PM,-,1622028502576,
2021-05-26 01:29:42 PM,-,1622028502580,
2021-05-26 01:29:42 PM,-,1622028502583,
2021-05-26 01:29:42 PM,-,1622028502586,
2021-05-26 01:29:42 PM,-,1622028502590,
2021-05-26 01:29:42 PM,-,1622028502593,
2021-05-26 01:29:42 PM,-,1622028502596,
2021-05-26 01:29:42 PM,-,1622028502600,
2021-05-26 01:29:42 PM,-,1622028502603,
2021-05-26 01:29:42 PM,-,1622028502606,
2021-05-26 01:29:42 PM,-,1622028502610,
2021-05-26 01:29:42 PM,-,1622028502613,
2021-05-26 01:29:42 PM,-,1622028502616,
2021-05-26 01:29:42 PM,-,1622028502620,
2021-05-26 01:29:42 PM,-,1622028502623,
2021-05-26 01:29:42 PM,-,1622028502626,
2021-05-26 01:29:42 PM,-,1622028502630,
2021-05-26 01:29:42 PM,-,1622028502633,
2021-05-26 01:29:42 PM,-,1622028502636,
2021-05-26 01:29:42 PM,-,1622028502640,
2021-05-26 01:29:42 PM,-,1622028502643,
2021-05-26 01:29:42 PM,-,1622028502646,
2021-05-26 01:29:42 PM,-,1622028502650,
2021-05-26 01:29:42 PM,-,1622028502653,
2021-05-26 01:29:42 PM,-,1622028502656,
2021-05-26 01:29:42 PM,-,1622028502660,
2021-05-26 01:29:42 PM,-,1622028502663,
2021-05-26 01:29:42 PM,-,1622028502666,
2021-05-26 01:29:42 PM,-,1622028502670,
2021-05-26 01:29:42 PM,-,1622028502673,
2021-05-26 01:29:42 PM,-,1622028502676,
2021-05-26 01:29:42 PM,-,1622028502680,
2021-05-26 01:29:42 PM,-,1622028502683,
2021-05-26 01:29:42 PM,-,1622028502686,
2021-05-26 01:29:42 PM,-,1622028502690,
2021-05-26 01:29:42 PM,-,1622028502693,
2021-05-26 01:29:42 PM,-,1622028502696,
2021-05-26 01:29:42 PM,-,1622028502700,
2021-05-26 01:29:42 PM,-,1622028502703,
2021-05-26 01:29:42 PM,-,1622028502706,
2021-05-26 01:29:42 PM,-,1622028502710,
2021-05-26 01:29:42 PM,-,1622028502713,
2021-05-26 01:29:42 PM,-,1622028502716,
2021-05-26 01:29:42 PM,-,1622028502720,
2021-05-26 01:29:42 PM,-,1622028502723,
2021-05-26 01:29:42 PM,-,1622028502726,
2021-05-26 01:29:42 PM,-,1622028502730,
2021-05-26 01:29:42 PM,-,1622028502733,
2021-05-26 01:29:42 PM,-,1622028502736,
2021-05-26 01:29:42 PM,-,1622028502740,
2021-05-26 01:29:42 PM,-,1622028502743,
2021-05-26 01:29:42 PM,-,1622028502746,
2021-05-26 01:29:42 PM,-,1622028502750,
2021-05-26 01:29:42 PM,-,1622028502753,
2021-05-26 01:29:42 PM,-,1622028502756,
2021-05-26 01:29:42 PM,-,1622028502760,
2021-05-26 01:29:42 PM,-,1622028502763,
2021-05-26 01:29:42 PM,-,1622028502766,
2021-05-26 01:29:42 PM,-,1622028502770,
2021-05-26 01:29:42 PM,-,1622028502773,
2021-05-26 01:29:42 PM,-,1622028502776,
2021-05-26 01:29:42 PM,-,1622028502780,
2021-05-26 01:29:42 PM,-,1622028502783,
2021-05-26 01:29:42 PM,-,1622028502786,
2021-05-26 01:29:42 PM,-,1622028502790,
2021-05-26 01:29:42 PM,-,1622028502793,
2021-05-26 01:29:42 PM,-,1622028502796,
2021-05-26 01:29:42 PM,-,1622028502800,
2021-05-26 01:29:42 PM,-,1622028502803,
2021-05-26 01:29:42 PM,-,1622028502806,
2021-05-26 01:29:42 PM,-,1622028502810,
2021-05-26 01:29:42 PM,-,1622028502813,
2021-05-26 01:29:42 PM,-,1622028502816,
2021-05-26 01:29:42 PM,-,1622028502820,
2021-05-26 01:29:42 PM,-,1622028502823,
2021-05-26 01:29:42 PM,-,1622028502826,
2021-05-26 01:29:42 PM,-,1622028502830,
2021-05-26 01:29:42 PM,-,1622028502833,
2021-05-26 01:29:42 PM,-,1622028502836,
2021-05-26 01:29:42 PM,-,1622028502840,
2021-05-26 01:29:42 PM,-,1622028502843,
2021-05-26 01:29:42 PM,-,1622028502846,
2021-05-26 01:29:42 PM,-,1622028502850,
2021-05-26 01:29:42 PM,-,1622028502853,
2021-05-26 01:29:42 PM,-,1622028502856,
2021-05-26 01:29:42 PM,-,1622028502860,
2021-05-26 01:29:42 PM,-,1622028502863,
2021-05-26 01:29:42 PM,-,1622028502866,
2021-05-26 01:29:42 PM,-,1622028502870,
2021-05-26 01:29:42 PM,-,1622028502873,
2021-05-26 01:29:42 PM,-,1622028502876,
2021-05-26 01:29:42 PM,-,1622028502880,
2021-05-26 01:29:42 PM,-,1622028502883,
2021-05-26 01:29:42 PM,-,1622028502886,
2021-05-26 01:29:42 PM,-,1622028502890,
2021-05-26 01:29:42 PM,-,1622028502893,
2021-05-26 01:29:42 PM,-,1622028502896,
2021-05-26 01:29:42 PM,-,1622028502900,
2021-05-26 01:29:42 PM,-,1622028502903,
2021-05-26 01:29:42 PM,-,1622028502906,
2021-05-26 01:29:42 PM,-,1622028502910,
2021-05-26 01:29:42 PM,-,1622028502913,
2021-05-26 01:29:42 PM,-,1622028502916,
2021-05-26 01:29:42 PM,-,1622028502920,
2021-05-26 01:29:42 PM,-,1622028502923,
2021-05-26 01:29:42 PM,-,1622028502926,
2021-05-26 01:29:42 PM,-,1622028502930,
2021-05-26 01:29:42 PM,-,1622028502933,
2021-05-26 01:29:42 PM,-,1622028502936,
2021-05-26 01:29:42 PM,-,1622028502940,
2021-05-26 01:29:42 PM,-,1622028502943,
2021-05-26 01:29:42 PM,-,1622028502946,
2021-05-26 01:29:42 PM,-,1622028502950,
2021-05-26 01:29:42 PM,-,1622028502953,
2021-05-26 01:29:42 PM,-,1622028502956,
2021-05-26 01:29:42 PM,-,1622028502960,
2021-05-26 01:29:42 PM,-,1622028502963,
2021-05-26 01:29:42 PM,-,1622028502966,
2021-05-26 01:29:42 PM,-,1622028502970,
2021-05-26 01:29:42 PM,-,1622028502973,
2021-05-26 01:29:42 PM,-,1622028502976,
2021-05-26 01:29:42 PM,-,1622028502980,
2021-05-26 01:29:42 PM,-,1622028502983,
2021-05-26 01:29:42 PM,-,1622028502986,
2021-05-26 01:29:42 PM,-,1622028502990,
2021-05-26 01:29:42 PM,-,1622028502993,
2021-05-26 01:29:42 PM,-,1622028502996,
2021-05-26 01:29:43 PM,-,1622028503000,
2021-05-26 01:29:43 PM,-,1622028503003,
2021-05-26 01:29:43 PM,-,1622028503006,
2021-05-26 01:29:43 PM,-,1622028503010,
2021-05-26 01:29:43 PM,-,1622028503013,
2021-05-26 01:29:43 PM,-,1622028503016,
2021-05-26 01:29:43 PM,-,1622028503020,
2021-05-26 01:29:43 PM,-,1622028503023,
2021-05-26 01:29:43 PM,-,1622028503026,
2021-05-26 01:29:43 PM,-,1622028503030,
2021-05-26 01:29:43 PM,-,1622028503033,
2021-05-26 01:29:43 PM,-,1622028503036,
2021-05-26 01:29:43 PM,-,1622028503040,
2021-05-26 01:29:43 PM,-,1622028503043,
2021-05-26 01:29:43 PM,-,1622028503046,
2021-05-26 01:29:43 PM,-,1622028503050,
2021-05-26 01:29:43 PM,-,1622028503053,
2021-05-26 01:29:43 PM,-,1622028503056,
2021-05-26 01:29:43 PM,-,1622028503060,
2021-05-26 01:29:43 PM,-,1622028503063,
2021-05-26 01:29:43 PM,-,1622028503066,
2021-05-26 01:29:43 PM,-,1622028503070,
2021-05-26 01:29:43 PM,-,1622028503073,
2021-05-26 01:29:43 PM,-,1622028503076,
2021-05-26 01:29:43 PM,-,1622028503080,
2021-05-26 01:29:43 PM,-,1622028503083,
2021-05-26 01:29:43 PM,-,1622028503086,
2021-05-26 01:29:43 PM,-,1622028503090,
2021-05-26 01:29:43 PM,-,1622028503093,
2021-05-26 01:29:43 PM,-,1622028503096,
2021-05-26 01:29:43 PM,-,1622028503100,
2021-05-26 01:29:43 PM,-,1622028503103,
2021-05-26 01:29:43 PM,-,1622028503106,
2021-05-26 01:29:43 PM,-,1622028503110,
2021-05-26 01:29:43 PM,-,1622028503113,
2021-05-26 01:29:43 PM,-,1622028503116,
2021-05-26 01:29:43 PM,-,1622028503120,
2021-05-26 01:29:43 PM,-,1622028503123,
2021-05-26 01:29:43 PM,-,1622028503126,
2021-05-26 01:29:43 PM,-,1622028503130,
2021-05-26 01:29:43 PM,-,1622028503133,
2021-05-26 01:29:43 PM,-,1622028503136,
2021-05-26 01:29:43 PM,-,1622028503140,
2021-05-26 01:29:43 PM,-,1622028503143,
2021-05-26 01:29:43 PM,-,1622028503146,
2021-05-26 01:29:43 PM,-,1622028503150,
2021-05-26 01:29:43 PM,-,1622028503153,
2021-05-26 01:29:43 PM,-,1622028503156,
2021-05-26 01:29:43 PM,-,1622028503160,
2021-05-26 01:29:43 PM,-,1622028503163,
2021-05-26 01:29:43 PM,-,1622028503166,
2021-05-26 01:29:43 PM,-,1622028503170,
2021-05-26 01:29:43 PM,-,1622028503173,
2021-05-26 01:29:43 PM,-,1622028503176,
2021-05-26 01:29:43 PM,-,1622028503180,
2021-05-26 01:29:43 PM,-,1622028503183,
2021-05-26 01:29:43 PM,-,1622028503186,
2021-05-26 01:29:43 PM,-,1622028503190,
2021-05-26 01:29:43 PM,-,1622028503193,
2021-05-26 01:29:43 PM,-,1622028503196,
2021-05-26 01:29:43 PM,-,1622028503200,
2021-05-26 01:29:43 PM,-,1622028503203,
2021-05-26 01:29:43 PM,-,1622028503206,
2021-05-26 01:29:43 PM,-,1622028503210,
2021-05-26 01:29:43 PM,-,1622028503213,
2021-05-26 01:29:43 PM,-,1622028503216,
2021-05-26 01:29:43 PM,-,1622028503220,
2021-05-26 01:29:43 PM,-,1622028503223,
2021-05-26 01:29:43 PM,-,1622028503226,
2021-05-26 01:29:43 PM,-,1622028503230,
2021-05-26 01:29:43 PM,-,1622028503233,
2021-05-26 01:29:43 PM,-,1622028503236,
2021-05-26 01:29:43 PM,-,1622028503240,
2021-05-26 01:29:43 PM,-,1622028503243,
2021-05-26 01:29:43 PM,-,1622028503246,
2021-05-26 01:29:43 PM,-,1622028503250,
2021-05-26 01:29:43 PM,-,1622028503253,
2021-05-26 01:29:43 PM,-,1622028503256,
2021-05-26 01:29:43 PM,-,1622028503260,
2021-05-26 01:29:43 PM,-,1622028503263,
2021-05-26 01:29:43 PM,-,1622028503266,
2021-05-26 01:29:43 PM,-,1622028503270,
2021-05-26 01:29:43 PM,-,1622028503273,
2021-05-26 01:29:43 PM,-,1622028503276,
2021-05-26 01:29:43 PM,-,1622028503280,
2021-05-26 01:29:43 PM,-,1622028503283,
2021-05-26 01:29:43 PM,-,1622028503286,
2021-05-26 01:29:43 PM,-,1622028503290,
2021-05-26 01:29:43 PM,-,1622028503293,
2021-05-26 01:29:43 PM,-,1622028503296,
2021-05-26 01:29:43 PM,-,1622028503300,
2021-05-26 01:29:43 PM,-,1622028503303,
2021-05-26 01:29:43 PM,-,1622028503306,
2021-05-26 01:29:43 PM,-,1622028503310,
2021-05-26 01:29:43 PM,-,1622028503313,
2021-05-26 01:29:43 PM,-,1622028503316,
2021-05-26 01:29:43 PM,-,1622028503320,
2021-05-26 01:29:43 PM,-,1622028503323,
2021-05-26 01:29:43 PM,-,1622028503326,
2021-05-26 01:29:43 PM,-,1622028503330,
2021-05-26 01:29:43 PM,-,1622028503333,
2021-05-26 01:29:43 PM,-,1622028503336,
2021-05-26 01:29:43 PM,-,1622028503340,
2021-05-26 01:29:43 PM,-,1622028503343,
2021-05-26 01:29:43 PM,-,1622028503346,
2021-05-26 01:29:43 PM,-,1622028503350,
2021-05-26 01:29:43 PM,-,1622028503353,
2021-05-26 01:29:43 PM,-,1622028503356,
2021-05-26 01:29:43 PM,-,1622028503360,
2021-05-26 01:29:43 PM,-,1622028503363,
2021-05-26 01:29:43 PM,-,1622028503366,
2021-05-26 01:29:43 PM,-,1622028503370,
2021-05-26 01:29:43 PM,-,1622028503373,
2021-05-26 01:29:43 PM,-,1622028503376,
2021-05-26 01:29:43 PM,-,1622028503380,
2021-05-26 01:29:43 PM,-,1622028503383,
2021-05-26 01:29:43 PM,-,1622028503386,
2021-05-26 01:29:43 PM,-,1622028503390,
2021-05-26 01:29:43 PM,-,1622028503393,
2021-05-26 01:29:43 PM,-,1622028503396,
2021-05-26 01:29:43 PM,-,1622028503400,
2021-05-26 01:29:43 PM,-,1622028503403,
2021-05-26 01:29:43 PM,-,1622028503406,
2021-05-26 01:29:43 PM,-,1622028503410,
2021-05-26 01:29:43 PM,-,1622028503413,
2021-05-26 01:29:43 PM,-,1622028503416,
2021-05-26 01:29:43 PM,-,1622028503420,
2021-05-26 01:29:43 PM,-,1622028503423,
2021-05-26 01:29:43 PM,-,1622028503426,
2021-05-26 01:29:43 PM,-,1622028503430,
2021-05-26 01:29:43 PM,-,1622028503433,
2021-05-26 01:29:43 PM,-,1622028503436,
2021-05-26 01:29:43 PM,-,1622028503440,
2021-05-26 01:29:43 PM,-,1622028503443,
2021-05-26 01:29:43 PM,-,1622028503446,
2021-05-26 01:29:43 PM,-,1622028503450,
2021-05-26 01:29:43 PM,-,1622028503453,
2021-05-26 01:29:43 PM,-,1622028503456,
2021-05-26 01:29:43 PM,-,1622028503460,
2021-05-26 01:29:43 PM,-,1622028503463,
2021-05-26 01:29:43 PM,-,1622028503466,
2021-05-26 01:29:43 PM,-,1622028503470,
2021-05-26 01:29:43 PM,-,1622028503473,
2021-05-26 01:29:43 PM,-,1622028503476,
2021-05-26 01:29:43 PM,-,1622028503480,
2021-05-26 01:29:43 PM,-,1622028503483,
2021-05-26 01:29:43 PM,-,1622028503486,
2021-05-26 01:29:43 PM,-,1622028503490,
2021-05-26 01:29:43 PM,-,1622028503493,
2021-05-26 01:29:43 PM,-,1622028503496,
2021-05-26 01:29:43 PM,-,1622028503500,
2021-05-26 01:29:43 PM,-,1622028503503,
2021-05-26 01:29:43 PM,-,1622028503506,
2021-05-26 01:29:43 PM,-,1622028503510,
2021-05-26 01:29:43 PM,-,1622028503513,
2021-05-26 01:29:43 PM,-,1622028503516,
2021-05-26 01:29:43 PM,-,1622028503520,
2021-05-26 01:29:43 PM,-,1622028503523,
2021-05-26 01:29:43 PM,-,1622028503526,
2021-05-26 01:29:43 PM,-,1622028503530,
2021-05-26 01:29:43 PM,-,1622028503533,
2021-05-26 01:29:43 PM,-,1622028503536,
2021-05-26 01:29:43 PM,-,1622028503540,
2021-05-26 01:29:43 PM,-,1622028503543,
2021-05-26 01:29:43 PM,-,1622028503546,
2021-05-26 01:29:43 PM,-,1622028503550,
2021-05-26 01:29:43 PM,-,1622028503553,
2021-05-26 01:29:43 PM,-,1622028503556,
2021-05-26 01:29:43 PM,-,1622028503560,
2021-05-26 01:29:43 PM,-,1622028503563,
2021-05-26 01:29:43 PM,-,1622028503566,
2021-05-26 01:29:43 PM,-,1622028503570,
2021-05-26 01:29:43 PM,-,1622028503573,
2021-05-26 01:29:43 PM,-,1622028503576,
2021-05-26 01:29:43 PM,-,1622028503580,
2021-05-26 01:29:43 PM,-,1622028503583,
2021-05-26 01:29:43 PM,-,1622028503586,
2021-05-26 01:29:43 PM,-,1622028503590,
2021-05-26 01:29:43 PM,-,1622028503593,
2021-05-26 01:29:43 PM,-,1622028503596,
2021-05-26 01:29:43 PM,-,1622028503600,
2021-05-26 01:29:43 PM,-,1622028503603,
2021-05-26 01:29:43 PM,-,1622028503606,
2021-05-26 01:29:43 PM,-,1622028503610,
2021-05-26 01:29:43 PM,-,1622028503613,
2021-05-26 01:29:43 PM,-,1622028503616,
2021-05-26 01:29:43 PM,-,1622028503620,
2021-05-26 01:29:43 PM,-,1622028503623,
2021-05-26 01:29:43 PM,-,1622028503626,
2021-05-26 01:29:43 PM,-,1622028503630,
2021-05-26 01:29:43 PM,-,1622028503633,
2021-05-26 01:29:43 PM,-,1622028503636,
2021-05-26 01:29:43 PM,-,1622028503640,
2021-05-26 01:29:43 PM,-,1622028503643,
2021-05-26 01:29:43 PM,-,1622028503646,
2021-05-26 01:29:43 PM,-,1622028503650,
2021-05-26 01:29:43 PM,-,1622028503653,
2021-05-26 01:29:43 PM,-,1622028503656,
2021-05-26 01:29:43 PM,-,1622028503660,
2021-05-26 01:29:43 PM,-,1622028503663,
2021-05-26 01:29:43 PM,-,1622028503666,
2021-05-26 01:29:43 PM,-,1622028503670,
2021-05-26 01:29:43 PM,-,1622028503673,
2021-05-26 01:29:43 PM,-,1622028503676,
2021-05-26 01:29:43 PM,-,1622028503680,
2021-05-26 01:29:43 PM,-,1622028503683,
2021-05-26 01:29:43 PM,-,1622028503686,
2021-05-26 01:29:43 PM,-,1622028503690,
2021-05-26 01:29:43 PM,-,1622028503693,
2021-05-26 01:29:43 PM,-,1622028503696,
2021-05-26 01:29:43 PM,-,1622028503700,
2021-05-26 01:29:43 PM,-,1622028503703,
2021-05-26 01:29:43 PM,-,1622028503706,
2021-05-26 01:29:43 PM,-,1622028503710,
2021-05-26 01:29:43 PM,-,1622028503713,
2021-05-26 01:29:43 PM,-,1622028503716,
2021-05-26 01:29:43 PM,-,1622028503720,
2021-05-26 01:29:43 PM,-,1622028503723,
2021-05-26 01:29:43 PM,-,1622028503726,
2021-05-26 01:29:43 PM,-,1622028503730,
2021-05-26 01:29:43 PM,-,1622028503733,
2021-05-26 01:29:43 PM,-,1622028503736,
2021-05-26 01:29:43 PM,-,1622028503740,
2021-05-26 01:29:43 PM,-,1622028503743,
2021-05-26 01:29:43 PM,-,1622028503746,
2021-05-26 01:29:43 PM,-,1622028503750,
2021-05-26 01:29:43 PM,-,1622028503753,
2021-05-26 01:29:43 PM,-,1622028503756,
2021-05-26 01:29:43 PM,-,1622028503760,
2021-05-26 01:29:43 PM,-,1622028503763,
2021-05-26 01:29:43 PM,-,1622028503766,
2021-05-26 01:29:43 PM,-,1622028503770,
2021-05-26 01:29:43 PM,-,1622028503773,
2021-05-26 01:29:43 PM,-,1622028503776,
2021-05-26 01:29:43 PM,-,1622028503780,
2021-05-26 01:29:43 PM,-,1622028503783,
2021-05-26 01:29:43 PM,-,1622028503786,
2021-05-26 01:29:43 PM,-,1622028503790,
2021-05-26 01:29:43 PM,-,1622028503793,
2021-05-26 01:29:43 PM,-,1622028503796,
2021-05-26 01:29:43 PM,-,1622028503800,
2021-05-26 01:29:43 PM,-,1622028503803,
2021-05-26 01:29:43 PM,-,1622028503806,
2021-05-26 01:29:43 PM,-,1622028503810,
2021-05-26 01:29:43 PM,-,1622028503813,
2021-05-26 01:29:43 PM,-,1622028503816,
2021-05-26 01:29:43 PM,-,1622028503820,
2021-05-26 01:29:43 PM,-,1622028503823,
2021-05-26 01:29:43 PM,-,1622028503826,
2021-05-26 01:29:43 PM,-,1622028503830,
2021-05-26 01:29:43 PM,-,1622028503833,
2021-05-26 01:29:43 PM,-,1622028503836,
2021-05-26 01:29:43 PM,-,1622028503840,
2021-05-26 01:29:43 PM,-,1622028503843,
2021-05-26 01:29:43 PM,-,1622028503846,
2021-05-26 01:29:43 PM,-,1622028503850,
2021-05-26 01:29:43 PM,-,1622028503853,
2021-05-26 01:29:43 PM,-,1622028503856,
2021-05-26 01:29:43 PM,-,1622028503860,
2021-05-26 01:29:43 PM,-,1622028503863,
2021-05-26 01:29:43 PM,-,1622028503866,
2021-05-26 01:29:43 PM,-,1622028503870,
2021-05-26 01:29:43 PM,-,1622028503873,
2021-05-26 01:29:43 PM,-,1622028503876,
2021-05-26 01:29:43 PM,-,1622028503880,
2021-05-26 01:29:43 PM,-,1622028503883,
2021-05-26 01:29:43 PM,-,1622028503886,
2021-05-26 01:29:43 PM,-,1622028503890,
2021-05-26 01:29:43 PM,-,1622028503893,
2021-05-26 01:29:43 PM,-,1622028503896,
2021-05-26 01:29:43 PM,-,1622028503900,
2021-05-26 01:29:43 PM,-,1622028503903,
2021-05-26 01:29:43 PM,-,1622028503906,
2021-05-26 01:29:43 PM,-,1622028503910,
2021-05-26 01:29:43 PM,-,1622028503913,
2021-05-26 01:29:43 PM,-,1622028503916,
2021-05-26 01:29:43 PM,-,1622028503920,
2021-05-26 01:29:43 PM,-,1622028503923,
2021-05-26 01:29:43 PM,-,1622028503926,
2021-05-26 01:29:43 PM,-,1622028503930,
2021-05-26 01:29:43 PM,-,1622028503933,
2021-05-26 01:29:43 PM,-,1622028503936,
2021-05-26 01:29:43 PM,-,1622028503940,
2021-05-26 01:29:43 PM,-,1622028503943,
2021-05-26 01:29:43 PM,-,1622028503946,
2021-05-26 01:29:43 PM,-,1622028503950,
2021-05-26 01:29:43 PM,-,1622028503953,
2021-05-26 01:29:43 PM,-,1622028503956,
2021-05-26 01:29:43 PM,-,1622028503960,
2021-05-26 01:29:43 PM,-,1622028503963,
2021-05-26 01:29:43 PM,-,1622028503966,
2021-05-26 01:29:43 PM,-,1622028503970,
2021-05-26 01:29:43 PM,-,1622028503973,
2021-05-26 01:29:43 PM,-,1622028503976,
2021-05-26 01:29:43 PM,-,1622028503980,
2021-05-26 01:29:43 PM,-,1622028503983,
2021-05-26 01:29:43 PM,-,1622028503986,
2021-05-26 01:29:43 PM,-,1622028503990,
2021-05-26 01:29:43 PM,-,1622028503993,
2021-05-26 01:29:43 PM,-,1622028503996,
2021-05-26 01:29:44 PM,-,1622028504000,
2021-05-26 01:29:44 PM,-,1622028504003,
2021-05-26 01:29:44 PM,-,1622028504006,
2021-05-26 01:29:44 PM,-,1622028504010,
2021-05-26 01:29:44 PM,-,1622028504013,
2021-05-26 01:29:44 PM,-,1622028504016,
2021-05-26 01:29:44 PM,-,1622028504020,
2021-05-26 01:29:44 PM,-,1622028504023,
2021-05-26 01:29:44 PM,-,1622028504026,
2021-05-26 01:29:44 PM,-,1622028504030,
2021-05-26 01:29:44 PM,-,1622028504033,
2021-05-26 01:29:44 PM,-,1622028504036,
2021-05-26 01:29:44 PM,-,1622028504040,
2021-05-26 01:29:44 PM,-,1622028504043,
2021-05-26 01:29:44 PM,-,1622028504046,
2021-05-26 01:29:44 PM,-,1622028504050,
2021-05-26 01:29:44 PM,-,1622028504053,
2021-05-26 01:29:44 PM,-,1622028504056,
2021-05-26 01:29:44 PM,-,1622028504060,
2021-05-26 01:29:44 PM,-,1622028504063,
2021-05-26 01:29:44 PM,-,1622028504066,
2021-05-26 01:29:44 PM,-,1622028504070,
2021-05-26 01:29:44 PM,-,1622028504073,
2021-05-26 01:29:44 PM,-,1622028504076,
2021-05-26 01:29:44 PM,-,1622028504080,
2021-05-26 01:29:44 PM,-,1622028504083,
2021-05-26 01:29:44 PM,-,1622028504086,
2021-05-26 01:29:44 PM,-,1622028504090,
2021-05-26 01:29:44 PM,-,1622028504093,
2021-05-26 01:29:44 PM,-,1622028504096,
2021-05-26 01:29:44 PM,-,1622028504100,
2021-05-26 01:29:44 PM,-,1622028504103,
2021-05-26 01:29:44 PM,-,1622028504106,
2021-05-26 01:29:44 PM,-,1622028504110,
2021-05-26 01:29:44 PM,-,1622028504113,
2021-05-26 01:29:44 PM,-,1622028504116,
2021-05-26 01:29:44 PM,-,1622028504120,
2021-05-26 01:29:44 PM,-,1622028504123,
2021-05-26 01:29:44 PM,-,1622028504126,
2021-05-26 01:29:44 PM,-,1622028504130,
2021-05-26 01:29:44 PM,-,1622028504133,
2021-05-26 01:29:44 PM,-,1622028504136,
2021-05-26 01:29:44 PM,-,1622028504140,
2021-05-26 01:29:44 PM,-,1622028504143,
2021-05-26 01:29:44 PM,-,1622028504146,
2021-05-26 01:29:44 PM,-,1622028504150,
2021-05-26 01:29:44 PM,-,1622028504153,
2021-05-26 01:29:44 PM,-,1622028504156,
2021-05-26 01:29:44 PM,-,1622028504160,
2021-05-26 01:29:44 PM,-,1622028504163,
2021-05-26 01:29:44 PM,-,1622028504166,
2021-05-26 01:29:44 PM,-,1622028504170,
2021-05-26 01:29:44 PM,-,1622028504173,
2021-05-26 01:29:44 PM,-,1622028504176,
2021-05-26 01:29:44 PM,-,1622028504180,
2021-05-26 01:29:44 PM,-,1622028504183,
2021-05-26 01:29:44 PM,-,1622028504186,
2021-05-26 01:29:44 PM,-,1622028504190,
2021-05-26 01:29:44 PM,-,1622028504193,
2021-05-26 01:29:44 PM,-,1622028504196,
2021-05-26 01:29:44 PM,-,1622028504200,
2021-05-26 01:29:44 PM,-,1622028504203,
2021-05-26 01:29:44 PM,-,1622028504206,
2021-05-26 01:29:44 PM,-,1622028504210,
2021-05-26 01:29:44 PM,-,1622028504213,
2021-05-26 01:29:44 PM,-,1622028504216,
2021-05-26 01:29:44 PM,-,1622028504220,
2021-05-26 01:29:44 PM,-,1622028504223,
2021-05-26 01:29:44 PM,-,1622028504226,
2021-05-26 01:29:44 PM,-,1622028504230,
2021-05-26 01:29:44 PM,-,1622028504233,
2021-05-26 01:29:44 PM,-,1622028504236,
2021-05-26 01:29:44 PM,-,1622028504240,
2021-05-26 01:29:44 PM,-,1622028504243,
2021-05-26 01:29:44 PM,-,1622028504246,
2021-05-26 01:29:44 PM,-,1622028504250,
2021-05-26 01:29:44 PM,-,1622028504253,
2021-05-26 01:29:44 PM,-,1622028504256,
2021-05-26 01:29:44 PM,-,1622028504260,
2021-05-26 01:29:44 PM,-,1622028504263,
2021-05-26 01:29:44 PM,-,1622028504266,
2021-05-26 01:29:44 PM,-,1622028504270,
2021-05-26 01:29:44 PM,-,1622028504273,
2021-05-26 01:29:44 PM,-,1622028504276,
2021-05-26 01:29:44 PM,-,1622028504280,
2021-05-26 01:29:44 PM,-,1622028504283,
2021-05-26 01:29:44 PM,-,1622028504286,
2021-05-26 01:29:44 PM,-,1622028504290,
2021-05-26 01:29:44 PM,-,1622028504293,
2021-05-26 01:29:44 PM,-,1622028504296,
2021-05-26 01:29:44 PM,-,1622028504300,
2021-05-26 01:29:44 PM,-,1622028504303,
2021-05-26 01:29:44 PM,-,1622028504306,
2021-05-26 01:29:44 PM,-,1622028504310,
2021-05-26 01:29:44 PM,-,1622028504313,
2021-05-26 01:29:44 PM,-,1622028504316,
2021-05-26 01:29:44 PM,-,1622028504320,
2021-05-26 01:29:44 PM,-,1622028504323,
2021-05-26 01:29:44 PM,-,1622028504326,
2021-05-26 01:29:44 PM,-,1622028504330,
2021-05-26 01:29:44 PM,-,1622028504333,
2021-05-26 01:29:44 PM,-,1622028504336,
2021-05-26 01:29:44 PM,-,1622028504340,
2021-05-26 01:29:44 PM,-,1622028504343,
2021-05-26 01:29:44 PM,-,1622028504346,
2021-05-26 01:29:44 PM,-,1622028504350,
2021-05-26 01:29:44 PM,-,1622028504353,
2021-05-26 01:29:44 PM,-,1622028504356,
2021-05-26 01:29:44 PM,-,1622028504360,
2021-05-26 01:29:44 PM,-,1622028504363,
2021-05-26 01:29:44 PM,-,1622028504366,
2021-05-26 01:29:44 PM,-,1622028504370,
2021-05-26 01:29:44 PM,-,1622028504373,
2021-05-26 01:29:44 PM,-,1622028504376,
2021-05-26 01:29:44 PM,-,1622028504380,
2021-05-26 01:29:44 PM,-,1622028504383,
2021-05-26 01:29:44 PM,-,1622028504386,
2021-05-26 01:29:44 PM,-,1622028504390,
2021-05-26 01:29:44 PM,-,1622028504393,
2021-05-26 01:29:44 PM,-,1622028504396,
2021-05-26 01:29:44 PM,-,1622028504400,
2021-05-26 01:29:44 PM,-,1622028504403,
2021-05-26 01:29:44 PM,-,1622028504406,
2021-05-26 01:29:44 PM,-,1622028504410,
2021-05-26 01:29:44 PM,-,1622028504413,
2021-05-26 01:29:44 PM,-,1622028504416,
2021-05-26 01:29:44 PM,-,1622028504420,
2021-05-26 01:29:44 PM,-,1622028504423,
2021-05-26 01:29:44 PM,-,1622028504426,
2021-05-26 01:29:44 PM,-,1622028504430,
2021-05-26 01:29:44 PM,-,1622028504433,
2021-05-26 01:29:44 PM,-,1622028504436,
2021-05-26 01:29:44 PM,-,1622028504440,
2021-05-26 01:29:44 PM,-,1622028504443,
2021-05-26 01:29:44 PM,-,1622028504446,
2021-05-26 01:29:44 PM,-,1622028504450,
2021-05-26 01:29:44 PM,-,1622028504453,
2021-05-26 01:29:44 PM,-,1622028504456,
2021-05-26 01:29:44 PM,-,1622028504460,
2021-05-26 01:29:44 PM,-,1622028504463,
2021-05-26 01:29:44 PM,-,1622028504466,
2021-05-26 01:29:44 PM,-,1622028504470,
2021-05-26 01:29:44 PM,-,1622028504473,
2021-05-26 01:29:44 PM,-,1622028504476,
2021-05-26 01:29:44 PM,-,1622028504480,
2021-05-26 01:29:44 PM,-,1622028504483,
2021-05-26 01:29:44 PM,-,1622028504486,
2021-05-26 01:29:44 PM,-,1622028504490,
2021-05-26 01:29:44 PM,-,1622028504493,
2021-05-26 01:29:44 PM,-,1622028504496,
2021-05-26 01:29:44 PM,-,1622028504500,
2021-05-26 01:29:44 PM,-,1622028504503,
2021-05-26 01:29:44 PM,-,1622028504506,
2021-05-26 01:29:44 PM,-,1622028504510,
2021-05-26 01:29:44 PM,-,1622028504513,
2021-05-26 01:29:44 PM,-,1622028504516,
2021-05-26 01:29:44 PM,-,1622028504520,
2021-05-26 01:29:44 PM,-,1622028504523,
2021-05-26 01:29:44 PM,-,1622028504526,
2021-05-26 01:29:44 PM,-,1622028504530,
2021-05-26 01:29:44 PM,-,1622028504533,
2021-05-26 01:29:44 PM,-,1622028504536,
2021-05-26 01:29:44 PM,-,1622028504540,
2021-05-26 01:29:44 PM,-,1622028504543,
2021-05-26 01:29:44 PM,-,1622028504546,
2021-05-26 01:29:44 PM,-,1622028504550,
2021-05-26 01:29:44 PM,-,1622028504553,
2021-05-26 01:29:44 PM,-,1622028504556,
2021-05-26 01:29:44 PM,-,1622028504560,
2021-05-26 01:29:44 PM,-,1622028504563,
2021-05-26 01:29:44 PM,-,1622028504566,
2021-05-26 01:29:44 PM,-,1622028504570,
2021-05-26 01:29:44 PM,-,1622028504573,
2021-05-26 01:29:44 PM,-,1622028504576,
2021-05-26 01:29:44 PM,-,1622028504580,
2021-05-26 01:29:44 PM,-,1622028504583,
2021-05-26 01:29:44 PM,-,1622028504586,
2021-05-26 01:29:44 PM,-,1622028504590,
2021-05-26 01:29:44 PM,-,1622028504593,
2021-05-26 01:29:44 PM,-,1622028504596,
2021-05-26 01:29:44 PM,-,1622028504600,
2021-05-26 01:29:44 PM,-,1622028504603,
2021-05-26 01:29:44 PM,-,1622028504606,
2021-05-26 01:29:44 PM,-,1622028504610,
2021-05-26 01:29:44 PM,-,1622028504613,
2021-05-26 01:29:44 PM,-,1622028504616,
2021-05-26 01:29:44 PM,-,1622028504620,
2021-05-26 01:29:44 PM,-,1622028504623,
2021-05-26 01:29:44 PM,-,1622028504626,
2021-05-26 01:29:44 PM,-,1622028504630,
2021-05-26 01:29:44 PM,-,1622028504633,
2021-05-26 01:29:44 PM,-,1622028504636,
2021-05-26 01:29:44 PM,-,1622028504640,
2021-05-26 01:29:44 PM,-,1622028504643,
2021-05-26 01:29:44 PM,-,1622028504646,
2021-05-26 01:29:44 PM,-,1622028504650,
2021-05-26 01:29:44 PM,-,1622028504653,
2021-05-26 01:29:44 PM,-,1622028504656,
2021-05-26 01:29:44 PM,-,1622028504660,
2021-05-26 01:29:44 PM,-,1622028504663,
2021-05-26 01:29:44 PM,-,1622028504666,
2021-05-26 01:29:44 PM,-,1622028504670,
2021-05-26 01:29:44 PM,-,1622028504673,
2021-05-26 01:29:44 PM,-,1622028504676,
2021-05-26 01:29:44 PM,-,1622028504680,
2021-05-26 01:29:44 PM,-,1622028504683,
2021-05-26 01:29:44 PM,-,1622028504686,
2021-05-26 01:29:44 PM,-,1622028504690,
2021-05-26 01:29:44 PM,-,1622028504693,
2021-05-26 01:29:44 PM,-,1622028504696,
2021-05-26 01:29:44 PM,-,1622028504700,
2021-05-26 01:29:44 PM,-,1622028504703,
2021-05-26 01:29:44 PM,-,1622028504706,
2021-05-26 01:29:44 PM,-,1622028504710,
2021-05-26 01:29:44 PM,-,1622028504713,
2021-05-26 01:29:44 PM,-,1622028504716,
2021-05-26 01:29:44 PM,-,1622028504720,
2021-05-26 01:29:44 PM,-,1622028504723,
2021-05-26 01:29:44 PM,-,1622028504726,
2021-05-26 01:29:44 PM,-,1622028504730,
2021-05-26 01:29:44 PM,-,1622028504733,
2021-05-26 01:29:44 PM,-,1622028504736,
2021-05-26 01:29:44 PM,-,1622028504740,
2021-05-26 01:29:44 PM,-,1622028504743,
2021-05-26 01:29:44 PM,-,1622028504746,
2021-05-26 01:29:44 PM,-,1622028504750,
2021-05-26 01:29:44 PM,-,1622028504753,
2021-05-26 01:29:44 PM,-,1622028504756,
2021-05-26 01:29:44 PM,-,1622028504760,
2021-05-26 01:29:44 PM,-,1622028504763,
2021-05-26 01:29:44 PM,-,1622028504766,
2021-05-26 01:29:44 PM,-,1622028504770,
2021-05-26 01:29:44 PM,-,1622028504773,
2021-05-26 01:29:44 PM,-,1622028504776,
2021-05-26 01:29:44 PM,-,1622028504780,
2021-05-26 01:29:44 PM,-,1622028504783,
2021-05-26 01:29:44 PM,-,1622028504786,
2021-05-26 01:29:44 PM,-,1622028504790,
2021-05-26 01:29:44 PM,-,1622028504793,
2021-05-26 01:29:44 PM,-,1622028504796,
2021-05-26 01:29:44 PM,-,1622028504800,
2021-05-26 01:29:44 PM,-,1622028504803,
2021-05-26 01:29:44 PM,-,1622028504806,
2021-05-26 01:29:44 PM,-,1622028504810,
2021-05-26 01:29:44 PM,-,1622028504813,
2021-05-26 01:29:44 PM,-,1622028504816,
2021-05-26 01:29:44 PM,-,1622028504820,
2021-05-26 01:29:44 PM,-,1622028504823,
2021-05-26 01:29:44 PM,-,1622028504826,
2021-05-26 01:29:44 PM,-,1622028504830,
2021-05-26 01:29:44 PM,-,1622028504833,
2021-05-26 01:29:44 PM,-,1622028504836,
2021-05-26 01:29:44 PM,-,1622028504840,
2021-05-26 01:29:44 PM,-,1622028504843,
2021-05-26 01:29:44 PM,-,1622028504846,
2021-05-26 01:29:44 PM,-,1622028504850,
2021-05-26 01:29:44 PM,-,1622028504853,
2021-05-26 01:29:44 PM,-,1622028504856,
2021-05-26 01:29:44 PM,-,1622028504860,
2021-05-26 01:29:44 PM,-,1622028504863,
2021-05-26 01:29:44 PM,-,1622028504866,
2021-05-26 01:29:44 PM,-,1622028504870,
2021-05-26 01:29:44 PM,-,1622028504873,
2021-05-26 01:29:44 PM,-,1622028504876,
2021-05-26 01:29:44 PM,-,1622028504880,
2021-05-26 01:29:44 PM,-,1622028504883,
2021-05-26 01:29:44 PM,-,1622028504886,
2021-05-26 01:29:44 PM,-,1622028504890,
2021-05-26 01:29:44 PM,-,1622028504893,
2021-05-26 01:29:44 PM,-,1622028504896,
2021-05-26 01:29:44 PM,-,1622028504900,
2021-05-26 01:29:44 PM,-,1622028504903,
2021-05-26 01:29:44 PM,-,1622028504906,
2021-05-26 01:29:44 PM,-,1622028504910,
2021-05-26 01:29:44 PM,-,1622028504913,
2021-05-26 01:29:44 PM,-,1622028504916,
2021-05-26 01:29:44 PM,-,1622028504920,
2021-05-26 01:29:44 PM,-,1622028504923,
2021-05-26 01:29:44 PM,-,1622028504926,
2021-05-26 01:29:44 PM,-,1622028504930,
2021-05-26 01:29:44 PM,-,1622028504933,
2021-05-26 01:29:44 PM,-,1622028504936,
2021-05-26 01:29:44 PM,-,1622028504940,
2021-05-26 01:29:44 PM,-,1622028504943,
2021-05-26 01:29:44 PM,-,1622028504946,
2021-05-26 01:29:44 PM,-,1622028504950,
2021-05-26 01:29:44 PM,-,1622028504953,
2021-05-26 01:29:44 PM,-,1622028504956,
2021-05-26 01:29:44 PM,-,1622028504960,
2021-05-26 01:29:44 PM,-,1622028504963,
2021-05-26 01:29:44 PM,-,1622028504966,
2021-05-26 01:29:44 PM,-,1622028504970,
2021-05-26 01:29:44 PM,-,1622028504973,
2021-05-26 01:29:44 PM,-,1622028504976,
2021-05-26 01:29:44 PM,-,1622028504980,
2021-05-26 01:29:44 PM,-,1622028504983,
2021-05-26 01:29:44 PM,-,1622028504986,
2021-05-26 01:29:44 PM,-,1622028504990,
2021-05-26 01:29:44 PM,-,1622028504993,
2021-05-26 01:29:44 PM,-,1622028504996,
2021-05-26 01:29:45 PM,-,1622028505000,
2021-05-26 01:29:45 PM,-,1622028505003,
2021-05-26 01:29:45 PM,-,1622028505006,
2021-05-26 01:29:45 PM,-,1622028505010,
2021-05-26 01:29:45 PM,-,1622028505013,
2021-05-26 01:29:45 PM,-,1622028505016,
2021-05-26 01:29:45 PM,-,1622028505020,
2021-05-26 01:29:45 PM,-,1622028505023,
2021-05-26 01:29:45 PM,-,1622028505026,
2021-05-26 01:29:45 PM,-,1622028505030,
2021-05-26 01:29:45 PM,-,1622028505033,
2021-05-26 01:29:45 PM,-,1622028505036,
2021-05-26 01:29:45 PM,-,1622028505040,
2021-05-26 01:29:45 PM,-,1622028505043,
2021-05-26 01:29:45 PM,-,1622028505046,
2021-05-26 01:29:45 PM,-,1622028505050,
2021-05-26 01:29:45 PM,-,1622028505053,
2021-05-26 01:29:45 PM,-,1622028505056,
2021-05-26 01:29:45 PM,-,1622028505060,
2021-05-26 01:29:45 PM,-,1622028505063,
2021-05-26 01:29:45 PM,-,1622028505066,
2021-05-26 01:29:45 PM,-,1622028505070,
2021-05-26 01:29:45 PM,-,1622028505073,
2021-05-26 01:29:45 PM,-,1622028505076,
2021-05-26 01:29:45 PM,-,1622028505080,
2021-05-26 01:29:45 PM,-,1622028505083,
2021-05-26 01:29:45 PM,-,1622028505086,
2021-05-26 01:29:45 PM,-,1622028505090,
2021-05-26 01:29:45 PM,-,1622028505093,
2021-05-26 01:29:45 PM,-,1622028505096,
2021-05-26 01:29:45 PM,-,1622028505100,
2021-05-26 01:29:45 PM,-,1622028505103,
2021-05-26 01:29:45 PM,-,1622028505106,
2021-05-26 01:29:45 PM,-,1622028505110,
2021-05-26 01:29:45 PM,-,1622028505113,
2021-05-26 01:29:45 PM,-,1622028505116,
2021-05-26 01:29:45 PM,-,1622028505120,
2021-05-26 01:29:45 PM,-,1622028505123,
2021-05-26 01:29:45 PM,-,1622028505126,
2021-05-26 01:29:45 PM,-,1622028505130,
2021-05-26 01:29:45 PM,-,1622028505133,
2021-05-26 01:29:45 PM,-,1622028505136,
2021-05-26 01:29:45 PM,-,1622028505140,
2021-05-26 01:29:45 PM,-,1622028505143,
2021-05-26 01:29:45 PM,-,1622028505146,
2021-05-26 01:29:45 PM,-,1622028505150,
2021-05-26 01:29:45 PM,-,1622028505153,
2021-05-26 01:29:45 PM,-,1622028505156,
2021-05-26 01:29:45 PM,-,1622028505160,
2021-05-26 01:29:45 PM,-,1622028505163,
2021-05-26 01:29:45 PM,-,1622028505166,
2021-05-26 01:29:45 PM,-,1622028505170,
2021-05-26 01:29:45 PM,-,1622028505173,
2021-05-26 01:29:45 PM,-,1622028505176,
2021-05-26 01:29:45 PM,-,1622028505180,
2021-05-26 01:29:45 PM,-,1622028505183,
2021-05-26 01:29:45 PM,-,1622028505186,
2021-05-26 01:29:45 PM,-,1622028505190,
2021-05-26 01:29:45 PM,-,1622028505193,
2021-05-26 01:29:45 PM,-,1622028505196,
2021-05-26 01:29:45 PM,-,1622028505200,
2021-05-26 01:29:45 PM,-,1622028505203,
2021-05-26 01:29:45 PM,-,1622028505206,
2021-05-26 01:29:45 PM,-,1622028505210,
2021-05-26 01:29:45 PM,-,1622028505213,
2021-05-26 01:29:45 PM,-,1622028505216,
2021-05-26 01:29:45 PM,-,1622028505220,
2021-05-26 01:29:45 PM,-,1622028505223,
2021-05-26 01:29:45 PM,-,1622028505226,
2021-05-26 01:29:45 PM,-,1622028505230,
2021-05-26 01:29:45 PM,-,1622028505233,
2021-05-26 01:29:45 PM,-,1622028505236,
2021-05-26 01:29:45 PM,-,1622028505240,
2021-05-26 01:29:45 PM,-,1622028505243,
2021-05-26 01:29:45 PM,-,1622028505246,
2021-05-26 01:29:45 PM,-,1622028505250,
2021-05-26 01:29:45 PM,-,1622028505253,
2021-05-26 01:29:45 PM,-,1622028505256,
2021-05-26 01:29:45 PM,-,1622028505260,
2021-05-26 01:29:45 PM,-,1622028505263,
2021-05-26 01:29:45 PM,-,1622028505266,
2021-05-26 01:29:45 PM,-,1622028505270,
2021-05-26 01:29:45 PM,-,1622028505273,
2021-05-26 01:29:45 PM,-,1622028505276,
2021-05-26 01:29:45 PM,-,1622028505280,
2021-05-26 01:29:45 PM,-,1622028505283,
2021-05-26 01:29:45 PM,-,1622028505286,
2021-05-26 01:29:45 PM,-,1622028505290,
2021-05-26 01:29:45 PM,-,1622028505293,
2021-05-26 01:29:45 PM,-,1622028505296,
2021-05-26 01:29:45 PM,-,1622028505300,
2021-05-26 01:29:45 PM,-,1622028505303,
2021-05-26 01:29:45 PM,-,1622028505306,
2021-05-26 01:29:45 PM,-,1622028505310,
2021-05-26 01:29:45 PM,-,1622028505313,
2021-05-26 01:29:45 PM,-,1622028505316,
2021-05-26 01:29:45 PM,-,1622028505320,
2021-05-26 01:29:45 PM,-,1622028505323,
2021-05-26 01:29:45 PM,-,1622028505326,
2021-05-26 01:29:45 PM,-,1622028505330,
2021-05-26 01:29:45 PM,-,1622028505333,
2021-05-26 01:29:45 PM,-,1622028505336,
2021-05-26 01:29:45 PM,-,1622028505340,
2021-05-26 01:29:45 PM,-,1622028505343,
2021-05-26 01:29:45 PM,-,1622028505346,
2021-05-26 01:29:45 PM,-,1622028505350,
2021-05-26 01:29:45 PM,-,1622028505353,
2021-05-26 01:29:45 PM,-,1622028505356,
2021-05-26 01:29:45 PM,-,1622028505360,
2021-05-26 01:29:45 PM,-,1622028505363,
2021-05-26 01:29:45 PM,-,1622028505366,
2021-05-26 01:29:45 PM,-,1622028505370,
2021-05-26 01:29:45 PM,-,1622028505373,
2021-05-26 01:29:45 PM,-,1622028505376,
2021-05-26 01:29:45 PM,-,1622028505380,
2021-05-26 01:29:45 PM,-,1622028505383,
2021-05-26 01:29:45 PM,-,1622028505386,
2021-05-26 01:29:45 PM,-,1622028505390,
2021-05-26 01:29:45 PM,-,1622028505393,
2021-05-26 01:29:45 PM,-,1622028505396,
2021-05-26 01:29:45 PM,-,1622028505400,
2021-05-26 01:29:45 PM,-,1622028505403,
2021-05-26 01:29:45 PM,-,1622028505406,
2021-05-26 01:29:45 PM,-,1622028505410,
2021-05-26 01:29:45 PM,-,1622028505413,
2021-05-26 01:29:45 PM,-,1622028505416,
2021-05-26 01:29:45 PM,-,1622028505420,
2021-05-26 01:29:45 PM,-,1622028505423,
2021-05-26 01:29:45 PM,-,1622028505426,
2021-05-26 01:29:45 PM,-,1622028505430,
2021-05-26 01:29:45 PM,-,1622028505433,
2021-05-26 01:29:45 PM,-,1622028505436,
2021-05-26 01:29:45 PM,-,1622028505440,
2021-05-26 01:29:45 PM,-,1622028505443,
2021-05-26 01:29:45 PM,-,1622028505446,
2021-05-26 01:29:45 PM,-,1622028505450,
2021-05-26 01:29:45 PM,-,1622028505453,
2021-05-26 01:29:45 PM,-,1622028505456,
2021-05-26 01:29:45 PM,-,1622028505460,
2021-05-26 01:29:45 PM,-,1622028505463,
2021-05-26 01:29:45 PM,-,1622028505466,
2021-05-26 01:29:45 PM,-,1622028505470,
2021-05-26 01:29:45 PM,-,1622028505473,
2021-05-26 01:29:45 PM,-,1622028505476,
2021-05-26 01:29:45 PM,-,1622028505480,
2021-05-26 01:29:45 PM,-,1622028505483,
2021-05-26 01:29:45 PM,-,1622028505486,
2021-05-26 01:29:45 PM,-,1622028505490,
2021-05-26 01:29:45 PM,-,1622028505493,
2021-05-26 01:29:45 PM,-,1622028505496,
2021-05-26 01:29:45 PM,-,1622028505500,
2021-05-26 01:29:45 PM,-,1622028505503,
2021-05-26 01:29:45 PM,-,1622028505506,
2021-05-26 01:29:45 PM,-,1622028505510,
2021-05-26 01:29:45 PM,-,1622028505513,
2021-05-26 01:29:45 PM,-,1622028505516,
2021-05-26 01:29:45 PM,-,1622028505520,
2021-05-26 01:29:45 PM,-,1622028505523,
2021-05-26 01:29:45 PM,-,1622028505526,
2021-05-26 01:29:45 PM,-,1622028505530,
2021-05-26 01:29:45 PM,-,1622028505533,
2021-05-26 01:29:45 PM,-,1622028505536,
2021-05-26 01:29:45 PM,-,1622028505540,
2021-05-26 01:29:45 PM,-,1622028505543,
2021-05-26 01:29:45 PM,-,1622028505546,
2021-05-26 01:29:45 PM,-,1622028505550,
2021-05-26 01:29:45 PM,-,1622028505553,
2021-05-26 01:29:45 PM,-,1622028505556,
2021-05-26 01:29:45 PM,-,1622028505560,
2021-05-26 01:29:45 PM,-,1622028505563,
2021-05-26 01:29:45 PM,-,1622028505566,
2021-05-26 01:29:45 PM,-,1622028505570,
2021-05-26 01:29:45 PM,-,1622028505573,
2021-05-26 01:29:45 PM,-,1622028505576,
2021-05-26 01:29:45 PM,-,1622028505580,
2021-05-26 01:29:45 PM,-,1622028505583,
2021-05-26 01:29:45 PM,-,1622028505586,
2021-05-26 01:29:45 PM,-,1622028505590,
2021-05-26 01:29:45 PM,-,1622028505593,
2021-05-26 01:29:45 PM,-,1622028505596,
2021-05-26 01:29:45 PM,-,1622028505600,
2021-05-26 01:29:45 PM,-,1622028505603,
2021-05-26 01:29:45 PM,-,1622028505606,
2021-05-26 01:29:45 PM,-,1622028505610,
2021-05-26 01:29:45 PM,-,1622028505613,
2021-05-26 01:29:45 PM,-,1622028505616,
2021-05-26 01:29:45 PM,-,1622028505620,
2021-05-26 01:29:45 PM,-,1622028505623,
2021-05-26 01:29:45 PM,-,1622028505626,
2021-05-26 01:29:45 PM,-,1622028505630,
2021-05-26 01:29:45 PM,-,1622028505633,
2021-05-26 01:29:45 PM,-,1622028505636,
2021-05-26 01:29:45 PM,-,1622028505640,
2021-05-26 01:29:45 PM,-,1622028505643,
2021-05-26 01:29:45 PM,-,1622028505646,
2021-05-26 01:29:45 PM,-,1622028505650,
2021-05-26 01:29:45 PM,-,1622028505653,
2021-05-26 01:29:45 PM,-,1622028505656,
2021-05-26 01:29:45 PM,-,1622028505660,
2021-05-26 01:29:45 PM,-,1622028505663,
2021-05-26 01:29:45 PM,-,1622028505666,
2021-05-26 01:29:45 PM,-,1622028505670,
2021-05-26 01:29:45 PM,-,1622028505673,
2021-05-26 01:29:45 PM,-,1622028505676,
2021-05-26 01:29:45 PM,-,1622028505680,
2021-05-26 01:29:45 PM,-,1622028505683,
2021-05-26 01:29:45 PM,-,1622028505686,
2021-05-26 01:29:45 PM,-,1622028505690,
2021-05-26 01:29:45 PM,-,1622028505693,
2021-05-26 01:29:45 PM,-,1622028505696,
2021-05-26 01:29:45 PM,-,1622028505700,
2021-05-26 01:29:45 PM,-,1622028505703,
2021-05-26 01:29:45 PM,-,1622028505706,
2021-05-26 01:29:45 PM,-,1622028505710,
2021-05-26 01:29:45 PM,-,1622028505713,
2021-05-26 01:29:45 PM,-,1622028505716,
2021-05-26 01:29:45 PM,-,1622028505720,
2021-05-26 01:29:45 PM,-,1622028505723,
2021-05-26 01:29:45 PM,-,1622028505726,
2021-05-26 01:29:45 PM,-,1622028505730,
2021-05-26 01:29:45 PM,-,1622028505733,
2021-05-26 01:29:45 PM,-,1622028505736,
2021-05-26 01:29:45 PM,-,1622028505740,
2021-05-26 01:29:45 PM,-,1622028505743,
2021-05-26 01:29:45 PM,-,1622028505746,
2021-05-26 01:29:45 PM,-,1622028505750,
2021-05-26 01:29:45 PM,-,1622028505753,
2021-05-26 01:29:45 PM,-,1622028505756,
2021-05-26 01:29:45 PM,-,1622028505760,
2021-05-26 01:29:45 PM,-,1622028505763,
2021-05-26 01:29:45 PM,-,1622028505766,
2021-05-26 01:29:45 PM,-,1622028505770,
2021-05-26 01:29:45 PM,-,1622028505773,
2021-05-26 01:29:45 PM,-,1622028505776,
2021-05-26 01:29:45 PM,-,1622028505780,
2021-05-26 01:29:45 PM,-,1622028505783,
2021-05-26 01:29:45 PM,-,1622028505786,
2021-05-26 01:29:45 PM,-,1622028505790,
2021-05-26 01:29:45 PM,-,1622028505793,
2021-05-26 01:29:45 PM,-,1622028505796,
2021-05-26 01:29:45 PM,-,1622028505800,
2021-05-26 01:29:45 PM,-,1622028505803,
2021-05-26 01:29:45 PM,-,1622028505806,
2021-05-26 01:29:45 PM,-,1622028505810,
2021-05-26 01:29:45 PM,-,1622028505813,
2021-05-26 01:29:45 PM,-,1622028505816,
2021-05-26 01:29:45 PM,-,1622028505820,
2021-05-26 01:29:45 PM,-,1622028505823,
2021-05-26 01:29:45 PM,-,1622028505826,
2021-05-26 01:29:45 PM,-,1622028505830,
2021-05-26 01:29:45 PM,-,1622028505833,
2021-05-26 01:29:45 PM,-,1622028505836,
2021-05-26 01:29:45 PM,-,1622028505840,
2021-05-26 01:29:45 PM,-,1622028505843,
2021-05-26 01:29:45 PM,-,1622028505846,
2021-05-26 01:29:45 PM,-,1622028505850,
2021-05-26 01:29:45 PM,-,1622028505853,
2021-05-26 01:29:45 PM,-,1622028505856,
2021-05-26 01:29:45 PM,-,1622028505860,
2021-05-26 01:29:45 PM,-,1622028505863,
2021-05-26 01:29:45 PM,-,1622028505866,
2021-05-26 01:29:45 PM,-,1622028505870,
2021-05-26 01:29:45 PM,-,1622028505873,
2021-05-26 01:29:45 PM,-,1622028505876,
2021-05-26 01:29:45 PM,-,1622028505880,
2021-05-26 01:29:45 PM,-,1622028505883,
2021-05-26 01:29:45 PM,-,1622028505886,
2021-05-26 01:29:45 PM,-,1622028505890,
2021-05-26 01:29:45 PM,-,1622028505893,
2021-05-26 01:29:45 PM,-,1622028505896,
2021-05-26 01:29:45 PM,-,1622028505900,
2021-05-26 01:29:45 PM,-,1622028505903,
2021-05-26 01:29:45 PM,-,1622028505906,
2021-05-26 01:29:45 PM,-,1622028505910,
2021-05-26 01:29:45 PM,-,1622028505913,
2021-05-26 01:29:45 PM,-,1622028505916,
2021-05-26 01:29:45 PM,-,1622028505920,
2021-05-26 01:29:45 PM,-,1622028505923,
2021-05-26 01:29:45 PM,-,1622028505926,
2021-05-26 01:29:45 PM,-,1622028505930,
2021-05-26 01:29:45 PM,-,1622028505933,
2021-05-26 01:29:45 PM,-,1622028505936,
2021-05-26 01:29:45 PM,-,1622028505940,
2021-05-26 01:29:45 PM,-,1622028505943,
2021-05-26 01:29:45 PM,-,1622028505946,
2021-05-26 01:29:45 PM,-,1622028505950,
2021-05-26 01:29:45 PM,-,1622028505953,
2021-05-26 01:29:45 PM,-,1622028505956,
2021-05-26 01:29:45 PM,-,1622028505960,
2021-05-26 01:29:45 PM,-,1622028505963,
2021-05-26 01:29:45 PM,-,1622028505966,
2021-05-26 01:29:45 PM,-,1622028505970,
2021-05-26 01:29:45 PM,-,1622028505973,
2021-05-26 01:29:45 PM,-,1622028505976,
2021-05-26 01:29:45 PM,-,1622028505980,
2021-05-26 01:29:45 PM,-,1622028505983,
2021-05-26 01:29:45 PM,-,1622028505986,
2021-05-26 01:29:45 PM,-,1622028505990,
2021-05-26 01:29:45 PM,-,1622028505993,
2021-05-26 01:29:45 PM,-,1622028505996,
2021-05-26 01:29:46 PM,-,1622028506000,
2021-05-26 01:29:46 PM,-,1622028506003,
2021-05-26 01:29:46 PM,-,1622028506006,
2021-05-26 01:29:46 PM,-,1622028506010,
2021-05-26 01:29:46 PM,-,1622028506013,
2021-05-26 01:29:46 PM,-,1622028506016,
2021-05-26 01:29:46 PM,-,1622028506020,
2021-05-26 01:29:46 PM,-,1622028506023,
2021-05-26 01:29:46 PM,-,1622028506026,
2021-05-26 01:29:46 PM,-,1622028506030,
2021-05-26 01:29:46 PM,-,1622028506033,
2021-05-26 01:29:46 PM,-,1622028506036,
2021-05-26 01:29:46 PM,-,1622028506040,
2021-05-26 01:29:46 PM,-,1622028506043,
2021-05-26 01:29:46 PM,-,1622028506046,
2021-05-26 01:29:46 PM,-,1622028506050,
2021-05-26 01:29:46 PM,-,1622028506053,
2021-05-26 01:29:46 PM,-,1622028506056,
2021-05-26 01:29:46 PM,-,1622028506060,
2021-05-26 01:29:46 PM,-,1622028506063,
2021-05-26 01:29:46 PM,-,1622028506066,
2021-05-26 01:29:46 PM,-,1622028506070,
2021-05-26 01:29:46 PM,-,1622028506073,
2021-05-26 01:29:46 PM,-,1622028506076,
2021-05-26 01:29:46 PM,-,1622028506080,
2021-05-26 01:29:46 PM,-,1622028506083,
2021-05-26 01:29:46 PM,-,1622028506086,
2021-05-26 01:29:46 PM,-,1622028506090,
2021-05-26 01:29:46 PM,-,1622028506093,
2021-05-26 01:29:46 PM,-,1622028506096,
2021-05-26 01:29:46 PM,-,1622028506100,
2021-05-26 01:29:46 PM,-,1622028506103,
2021-05-26 01:29:46 PM,-,1622028506106,
2021-05-26 01:29:46 PM,-,1622028506110,
2021-05-26 01:29:46 PM,-,1622028506113,
2021-05-26 01:29:46 PM,-,1622028506116,
2021-05-26 01:29:46 PM,-,1622028506120,
2021-05-26 01:29:46 PM,-,1622028506123,
2021-05-26 01:29:46 PM,-,1622028506126,
2021-05-26 01:29:46 PM,-,1622028506130,
2021-05-26 01:29:46 PM,-,1622028506133,
2021-05-26 01:29:46 PM,-,1622028506136,
2021-05-26 01:29:46 PM,-,1622028506140,
2021-05-26 01:29:46 PM,-,1622028506143,
2021-05-26 01:29:46 PM,-,1622028506146,
2021-05-26 01:29:46 PM,-,1622028506150,
2021-05-26 01:29:46 PM,-,1622028506153,
2021-05-26 01:29:46 PM,-,1622028506156,
2021-05-26 01:29:46 PM,-,1622028506160,
2021-05-26 01:29:46 PM,-,1622028506163,
2021-05-26 01:29:46 PM,-,1622028506166,
2021-05-26 01:29:46 PM,-,1622028506170,
2021-05-26 01:29:46 PM,-,1622028506173,
2021-05-26 01:29:46 PM,-,1622028506176,
2021-05-26 01:29:46 PM,-,1622028506180,
2021-05-26 01:29:46 PM,-,1622028506183,
2021-05-26 01:29:46 PM,-,1622028506186,
2021-05-26 01:29:46 PM,-,1622028506190,
2021-05-26 01:29:46 PM,-,1622028506193,
2021-05-26 01:29:46 PM,-,1622028506196,
2021-05-26 01:29:46 PM,-,1622028506200,
2021-05-26 01:29:46 PM,-,1622028506203,
2021-05-26 01:29:46 PM,-,1622028506206,
2021-05-26 01:29:46 PM,-,1622028506210,
2021-05-26 01:29:46 PM,-,1622028506213,
2021-05-26 01:29:46 PM,-,1622028506216,
2021-05-26 01:29:46 PM,-,1622028506220,
2021-05-26 01:29:46 PM,-,1622028506223,
2021-05-26 01:29:46 PM,-,1622028506226,
2021-05-26 01:29:46 PM,-,1622028506230,
2021-05-26 01:29:46 PM,-,1622028506233,
2021-05-26 01:29:46 PM,-,1622028506236,
2021-05-26 01:29:46 PM,-,1622028506240,
2021-05-26 01:29:46 PM,-,1622028506243,
2021-05-26 01:29:46 PM,-,1622028506246,
2021-05-26 01:29:46 PM,-,1622028506250,
2021-05-26 01:29:46 PM,-,1622028506253,
2021-05-26 01:29:46 PM,-,1622028506256,
2021-05-26 01:29:46 PM,-,1622028506260,
2021-05-26 01:29:46 PM,-,1622028506263,
2021-05-26 01:29:46 PM,-,1622028506266,
2021-05-26 01:29:46 PM,-,1622028506270,
2021-05-26 01:29:46 PM,-,1622028506273,
2021-05-26 01:29:46 PM,-,1622028506276,
2021-05-26 01:29:46 PM,-,1622028506280,
2021-05-26 01:29:46 PM,-,1622028506283,
2021-05-26 01:29:46 PM,-,1622028506286,
2021-05-26 01:29:46 PM,-,1622028506290,
2021-05-26 01:29:46 PM,-,1622028506293,
2021-05-26 01:29:46 PM,-,1622028506296,
2021-05-26 01:29:46 PM,-,1622028506300,
2021-05-26 01:29:46 PM,-,1622028506303,
2021-05-26 01:29:46 PM,-,1622028506306,
2021-05-26 01:29:46 PM,-,1622028506310,
2021-05-26 01:29:46 PM,-,1622028506313,
2021-05-26 01:29:46 PM,-,1622028506316,
2021-05-26 01:29:46 PM,-,1622028506320,
2021-05-26 01:29:46 PM,-,1622028506323,
2021-05-26 01:29:46 PM,-,1622028506326,
2021-05-26 01:29:46 PM,-,1622028506330,
2021-05-26 01:29:46 PM,-,1622028506333,
2021-05-26 01:29:46 PM,-,1622028506336,
2021-05-26 01:29:46 PM,-,1622028506340,
2021-05-26 01:29:46 PM,-,1622028506343,
2021-05-26 01:29:46 PM,-,1622028506346,
2021-05-26 01:29:46 PM,-,1622028506350,
2021-05-26 01:29:46 PM,-,1622028506353,
2021-05-26 01:29:46 PM,-,1622028506356,
2021-05-26 01:29:46 PM,-,1622028506360,
2021-05-26 01:29:46 PM,-,1622028506363,
2021-05-26 01:29:46 PM,-,1622028506366,
2021-05-26 01:29:46 PM,-,1622028506370,
2021-05-26 01:29:46 PM,-,1622028506373,
2021-05-26 01:29:46 PM,-,1622028506376,
2021-05-26 01:29:46 PM,-,1622028506380,
2021-05-26 01:29:46 PM,-,1622028506383,
2021-05-26 01:29:46 PM,-,1622028506386,
2021-05-26 01:29:46 PM,-,1622028506390,
2021-05-26 01:29:46 PM,-,1622028506393,
2021-05-26 01:29:46 PM,-,1622028506396,
2021-05-26 01:29:46 PM,-,1622028506400,
2021-05-26 01:29:46 PM,-,1622028506403,
2021-05-26 01:29:46 PM,-,1622028506406,
2021-05-26 01:29:46 PM,-,1622028506410,
2021-05-26 01:29:46 PM,-,1622028506413,
2021-05-26 01:29:46 PM,-,1622028506416,
2021-05-26 01:29:46 PM,-,1622028506420,
2021-05-26 01:29:46 PM,-,1622028506423,
2021-05-26 01:29:46 PM,-,1622028506426,
2021-05-26 01:29:46 PM,-,1622028506430,
2021-05-26 01:29:46 PM,-,1622028506433,
2021-05-26 01:29:46 PM,-,1622028506436,
2021-05-26 01:29:46 PM,-,1622028506440,
2021-05-26 01:29:46 PM,-,1622028506443,
2021-05-26 01:29:46 PM,-,1622028506446,
2021-05-26 01:29:46 PM,-,1622028506450,
2021-05-26 01:29:46 PM,-,1622028506453,
2021-05-26 01:29:46 PM,-,1622028506456,
2021-05-26 01:29:46 PM,-,1622028506460,
2021-05-26 01:29:46 PM,-,1622028506463,
2021-05-26 01:29:46 PM,-,1622028506466,
2021-05-26 01:29:46 PM,-,1622028506470,
2021-05-26 01:29:46 PM,-,1622028506473,
2021-05-26 01:29:46 PM,-,1622028506476,
2021-05-26 01:29:46 PM,-,1622028506480,
2021-05-26 01:29:46 PM,-,1622028506483,
2021-05-26 01:29:46 PM,-,1622028506486,
2021-05-26 01:29:46 PM,-,1622028506490,
2021-05-26 01:29:46 PM,-,1622028506493,
2021-05-26 01:29:46 PM,-,1622028506496,
2021-05-26 01:29:46 PM,-,1622028506500,
2021-05-26 01:29:46 PM,-,1622028506503,
2021-05-26 01:29:46 PM,-,1622028506506,
2021-05-26 01:29:46 PM,-,1622028506510,
2021-05-26 01:29:46 PM,-,1622028506513,
2021-05-26 01:29:46 PM,-,1622028506516,
2021-05-26 01:29:46 PM,-,1622028506520,
2021-05-26 01:29:46 PM,-,1622028506523,
2021-05-26 01:29:46 PM,-,1622028506526,
2021-05-26 01:29:46 PM,-,1622028506530,
2021-05-26 01:29:46 PM,-,1622028506533,
2021-05-26 01:29:46 PM,-,1622028506536,
2021-05-26 01:29:46 PM,-,1622028506540,
2021-05-26 01:29:46 PM,-,1622028506543,
2021-05-26 01:29:46 PM,-,1622028506546,
2021-05-26 01:29:46 PM,-,1622028506550,
2021-05-26 01:29:46 PM,-,1622028506553,
2021-05-26 01:29:46 PM,-,1622028506556,
2021-05-26 01:29:46 PM,-,1622028506560,
2021-05-26 01:29:46 PM,-,1622028506563,
2021-05-26 01:29:46 PM,-,1622028506566,
2021-05-26 01:29:46 PM,-,1622028506570,
2021-05-26 01:29:46 PM,-,1622028506573,
2021-05-26 01:29:46 PM,-,1622028506576,
2021-05-26 01:29:46 PM,-,1622028506580,
2021-05-26 01:29:46 PM,-,1622028506583,
2021-05-26 01:29:46 PM,-,1622028506586,
2021-05-26 01:29:46 PM,-,1622028506590,
2021-05-26 01:29:46 PM,-,1622028506593,
2021-05-26 01:29:46 PM,-,1622028506596,
2021-05-26 01:29:46 PM,-,1622028506600,
2021-05-26 01:29:46 PM,-,1622028506603,
2021-05-26 01:29:46 PM,-,1622028506606,
2021-05-26 01:29:46 PM,-,1622028506610,
2021-05-26 01:29:46 PM,-,1622028506613,
2021-05-26 01:29:46 PM,-,1622028506616,
2021-05-26 01:29:46 PM,-,1622028506620,
2021-05-26 01:29:46 PM,-,1622028506623,
2021-05-26 01:29:46 PM,-,1622028506626,
2021-05-26 01:29:46 PM,-,1622028506630,
2021-05-26 01:29:46 PM,-,1622028506633,
2021-05-26 01:29:46 PM,-,1622028506636,
2021-05-26 01:29:46 PM,-,1622028506640,
2021-05-26 01:29:46 PM,-,1622028506643,
2021-05-26 01:29:46 PM,-,1622028506646,
2021-05-26 01:29:46 PM,-,1622028506650,
2021-05-26 01:29:46 PM,-,1622028506653,
2021-05-26 01:29:46 PM,-,1622028506656,
2021-05-26 01:29:46 PM,-,1622028506660,
2021-05-26 01:29:46 PM,-,1622028506663,
2021-05-26 01:29:46 PM,-,1622028506666,
2021-05-26 01:29:46 PM,-,1622028506670,
2021-05-26 01:29:46 PM,-,1622028506673,
2021-05-26 01:29:46 PM,-,1622028506676,
2021-05-26 01:29:46 PM,-,1622028506680,
2021-05-26 01:29:46 PM,-,1622028506683,
2021-05-26 01:29:46 PM,-,1622028506686,
2021-05-26 01:29:46 PM,-,1622028506690,
2021-05-26 01:29:46 PM,-,1622028506693,
2021-05-26 01:29:46 PM,-,1622028506696,
2021-05-26 01:29:46 PM,-,1622028506700,
2021-05-26 01:29:46 PM,-,1622028506703,
2021-05-26 01:29:46 PM,-,1622028506706,
2021-05-26 01:29:46 PM,-,1622028506710,
2021-05-26 01:29:46 PM,-,1622028506713,
2021-05-26 01:29:46 PM,-,1622028506716,
2021-05-26 01:29:46 PM,-,1622028506720,
2021-05-26 01:29:46 PM,-,1622028506723,
2021-05-26 01:29:46 PM,-,1622028506726,
2021-05-26 01:29:46 PM,-,1622028506730,
2021-05-26 01:29:46 PM,-,1622028506733,
2021-05-26 01:29:46 PM,-,1622028506736,
2021-05-26 01:29:46 PM,-,1622028506740,
2021-05-26 01:29:46 PM,-,1622028506743,
2021-05-26 01:29:46 PM,-,1622028506746,
2021-05-26 01:29:46 PM,-,1622028506750,
2021-05-26 01:29:46 PM,-,1622028506753,
2021-05-26 01:29:46 PM,-,1622028506756,
2021-05-26 01:29:46 PM,-,1622028506760,
2021-05-26 01:29:46 PM,-,1622028506763,
2021-05-26 01:29:46 PM,-,1622028506766,
2021-05-26 01:29:46 PM,-,1622028506770,
2021-05-26 01:29:46 PM,-,1622028506773,
2021-05-26 01:29:46 PM,-,1622028506776,
2021-05-26 01:29:46 PM,-,1622028506780,
2021-05-26 01:29:46 PM,-,1622028506783,
2021-05-26 01:29:46 PM,-,1622028506786,
2021-05-26 01:29:46 PM,-,1622028506790,
2021-05-26 01:29:46 PM,-,1622028506793,
2021-05-26 01:29:46 PM,-,1622028506796,
2021-05-26 01:29:46 PM,-,1622028506800,
2021-05-26 01:29:46 PM,-,1622028506803,
2021-05-26 01:29:46 PM,-,1622028506806,
2021-05-26 01:29:46 PM,-,1622028506810,
2021-05-26 01:29:46 PM,-,1622028506813,
2021-05-26 01:29:46 PM,-,1622028506816,
2021-05-26 01:29:46 PM,-,1622028506820,
2021-05-26 01:29:46 PM,-,1622028506823,
2021-05-26 01:29:46 PM,-,1622028506826,
2021-05-26 01:29:46 PM,-,1622028506830,
2021-05-26 01:29:46 PM,-,1622028506833,
2021-05-26 01:29:46 PM,-,1622028506836,
2021-05-26 01:29:46 PM,-,1622028506840,
2021-05-26 01:29:46 PM,-,1622028506843,
2021-05-26 01:29:46 PM,-,1622028506846,
2021-05-26 01:29:46 PM,-,1622028506850,
2021-05-26 01:29:46 PM,-,1622028506853,
2021-05-26 01:29:46 PM,-,1622028506856,
2021-05-26 01:29:46 PM,-,1622028506860,
2021-05-26 01:29:46 PM,-,1622028506863,
2021-05-26 01:29:46 PM,-,1622028506866,
2021-05-26 01:29:46 PM,-,1622028506870,
2021-05-26 01:29:46 PM,-,1622028506873,
2021-05-26 01:29:46 PM,-,1622028506876,
2021-05-26 01:29:46 PM,-,1622028506880,
2021-05-26 01:29:46 PM,-,1622028506883,
2021-05-26 01:29:46 PM,-,1622028506886,
2021-05-26 01:29:46 PM,-,1622028506890,
2021-05-26 01:29:46 PM,-,1622028506893,
2021-05-26 01:29:46 PM,-,1622028506896,
2021-05-26 01:29:46 PM,-,1622028506900,
2021-05-26 01:29:46 PM,-,1622028506903,
2021-05-26 01:29:46 PM,-,1622028506906,
2021-05-26 01:29:46 PM,-,1622028506910,
2021-05-26 01:29:46 PM,-,1622028506913,
2021-05-26 01:29:46 PM,-,1622028506916,
2021-05-26 01:29:46 PM,-,1622028506920,
2021-05-26 01:29:46 PM,-,1622028506923,
2021-05-26 01:29:46 PM,-,1622028506926,
2021-05-26 01:29:46 PM,-,1622028506930,
2021-05-26 01:29:46 PM,-,1622028506933,
2021-05-26 01:29:46 PM,-,1622028506936,
2021-05-26 01:29:46 PM,-,1622028506940,
2021-05-26 01:29:46 PM,-,1622028506943,
2021-05-26 01:29:46 PM,-,1622028506946,
2021-05-26 01:29:46 PM,-,1622028506950,
2021-05-26 01:29:46 PM,-,1622028506953,
2021-05-26 01:29:46 PM,-,1622028506956,
2021-05-26 01:29:46 PM,-,1622028506960,
2021-05-26 01:29:46 PM,-,1622028506963,
2021-05-26 01:29:46 PM,-,1622028506966,
2021-05-26 01:29:46 PM,-,1622028506970,
2021-05-26 01:29:46 PM,-,1622028506973,
2021-05-26 01:29:46 PM,-,1622028506976,
2021-05-26 01:29:46 PM,-,1622028506980,
2021-05-26 01:29:46 PM,-,1622028506983,
2021-05-26 01:29:46 PM,-,1622028506986,
2021-05-26 01:29:46 PM,-,1622028506990,
2021-05-26 01:29:46 PM,-,1622028506993,
2021-05-26 01:29:46 PM,-,1622028506996,
2021-05-26 01:29:47 PM,-,1622028507000,
2021-05-26 01:29:47 PM,-,1622028507003,
2021-05-26 01:29:47 PM,-,1622028507006,
2021-05-26 01:29:47 PM,-,1622028507010,
2021-05-26 01:29:47 PM,-,1622028507013,
2021-05-26 01:29:47 PM,-,1622028507016,
2021-05-26 01:29:47 PM,-,1622028507020,
2021-05-26 01:29:47 PM,-,1622028507023,
2021-05-26 01:29:47 PM,-,1622028507026,
2021-05-26 01:29:47 PM,-,1622028507030,
2021-05-26 01:29:47 PM,-,1622028507033,
2021-05-26 01:29:47 PM,-,1622028507036,
2021-05-26 01:29:47 PM,-,1622028507040,
2021-05-26 01:29:47 PM,-,1622028507043,
2021-05-26 01:29:47 PM,-,1622028507046,
2021-05-26 01:29:47 PM,-,1622028507050,
2021-05-26 01:29:47 PM,-,1622028507053,
2021-05-26 01:29:47 PM,-,1622028507056,
2021-05-26 01:29:47 PM,-,1622028507060,
2021-05-26 01:29:47 PM,-,1622028507063,
2021-05-26 01:29:47 PM,-,1622028507066,
2021-05-26 01:29:47 PM,-,1622028507070,
2021-05-26 01:29:47 PM,-,1622028507073,
2021-05-26 01:29:47 PM,-,1622028507076,
2021-05-26 01:29:47 PM,-,1622028507080,
2021-05-26 01:29:47 PM,-,1622028507083,
2021-05-26 01:29:47 PM,-,1622028507086,
2021-05-26 01:29:47 PM,-,1622028507090,
2021-05-26 01:29:47 PM,-,1622028507093,
2021-05-26 01:29:47 PM,-,1622028507096,
2021-05-26 01:29:47 PM,-,1622028507100,
2021-05-26 01:29:47 PM,-,1622028507103,
2021-05-26 01:29:47 PM,-,1622028507106,
2021-05-26 01:29:47 PM,-,1622028507110,
2021-05-26 01:29:47 PM,-,1622028507113,
2021-05-26 01:29:47 PM,-,1622028507116,
2021-05-26 01:29:47 PM,-,1622028507120,
2021-05-26 01:29:47 PM,-,1622028507123,
2021-05-26 01:29:47 PM,-,1622028507126,
2021-05-26 01:29:47 PM,-,1622028507130,
2021-05-26 01:29:47 PM,-,1622028507133,
2021-05-26 01:29:47 PM,-,1622028507136,
2021-05-26 01:29:47 PM,-,1622028507140,
2021-05-26 01:29:47 PM,-,1622028507143,
2021-05-26 01:29:47 PM,-,1622028507146,
2021-05-26 01:29:47 PM,-,1622028507150,
2021-05-26 01:29:47 PM,-,1622028507153,
2021-05-26 01:29:47 PM,-,1622028507156,
2021-05-26 01:29:47 PM,-,1622028507160,
2021-05-26 01:29:47 PM,-,1622028507163,
2021-05-26 01:29:47 PM,-,1622028507166,
2021-05-26 01:29:47 PM,-,1622028507170,
2021-05-26 01:29:47 PM,-,1622028507173,
2021-05-26 01:29:47 PM,-,1622028507176,
2021-05-26 01:29:47 PM,-,1622028507180,
2021-05-26 01:29:47 PM,-,1622028507183,
2021-05-26 01:29:47 PM,-,1622028507186,
2021-05-26 01:29:47 PM,-,1622028507190,
2021-05-26 01:29:47 PM,-,1622028507193,
2021-05-26 01:29:47 PM,-,1622028507196,
2021-05-26 01:29:47 PM,-,1622028507200,
2021-05-26 01:29:47 PM,-,1622028507203,
2021-05-26 01:29:47 PM,-,1622028507206,
2021-05-26 01:29:47 PM,-,1622028507210,
2021-05-26 01:29:47 PM,-,1622028507213,
2021-05-26 01:29:47 PM,-,1622028507216,
2021-05-26 01:29:47 PM,-,1622028507220,
2021-05-26 01:29:47 PM,-,1622028507223,
2021-05-26 01:29:47 PM,-,1622028507226,
2021-05-26 01:29:47 PM,-,1622028507230,
2021-05-26 01:29:47 PM,-,1622028507233,
2021-05-26 01:29:47 PM,-,1622028507236,
2021-05-26 01:29:47 PM,-,1622028507240,
2021-05-26 01:29:47 PM,-,1622028507243,
2021-05-26 01:29:47 PM,-,1622028507246,
2021-05-26 01:29:47 PM,-,1622028507250,
2021-05-26 01:29:47 PM,-,1622028507253,
2021-05-26 01:29:47 PM,-,1622028507256,
2021-05-26 01:29:47 PM,-,1622028507260,
2021-05-26 01:29:47 PM,-,1622028507263,
2021-05-26 01:29:47 PM,-,1622028507266,
2021-05-26 01:29:47 PM,-,1622028507270,
2021-05-26 01:29:47 PM,-,1622028507273,
2021-05-26 01:29:47 PM,-,1622028507276,
2021-05-26 01:29:47 PM,-,1622028507280,
2021-05-26 01:29:47 PM,-,1622028507283,
2021-05-26 01:29:47 PM,-,1622028507286,
2021-05-26 01:29:47 PM,-,1622028507290,
2021-05-26 01:29:47 PM,-,1622028507293,
2021-05-26 01:29:47 PM,-,1622028507296,
2021-05-26 01:29:47 PM,-,1622028507300,
2021-05-26 01:29:47 PM,-,1622028507303,
2021-05-26 01:29:47 PM,-,1622028507306,
2021-05-26 01:29:47 PM,-,1622028507310,
2021-05-26 01:29:47 PM,-,1622028507313,
2021-05-26 01:29:47 PM,-,1622028507316,
2021-05-26 01:29:47 PM,-,1622028507320,
2021-05-26 01:29:47 PM,-,1622028507323,
2021-05-26 01:29:47 PM,-,1622028507326,
2021-05-26 01:29:47 PM,-,1622028507330,
2021-05-26 01:29:47 PM,-,1622028507333,
2021-05-26 01:29:47 PM,-,1622028507336,
2021-05-26 01:29:47 PM,-,1622028507340,
2021-05-26 01:29:47 PM,-,1622028507343,
2021-05-26 01:29:47 PM,-,1622028507346,
2021-05-26 01:29:47 PM,-,1622028507350,
2021-05-26 01:29:47 PM,-,1622028507353,
2021-05-26 01:29:47 PM,-,1622028507356,
2021-05-26 01:29:47 PM,-,1622028507360,
2021-05-26 01:29:47 PM,-,1622028507363,
2021-05-26 01:29:47 PM,-,1622028507366,
2021-05-26 01:29:47 PM,-,1622028507370,
2021-05-26 01:29:47 PM,-,1622028507373,
2021-05-26 01:29:47 PM,-,1622028507376,
2021-05-26 01:29:47 PM,-,1622028507380,
2021-05-26 01:29:47 PM,-,1622028507383,
2021-05-26 01:29:47 PM,-,1622028507386,
2021-05-26 01:29:47 PM,-,1622028507390,
2021-05-26 01:29:47 PM,-,1622028507393,
2021-05-26 01:29:47 PM,-,1622028507396,
2021-05-26 01:29:47 PM,-,1622028507400,
2021-05-26 01:29:47 PM,-,1622028507403,
2021-05-26 01:29:47 PM,-,1622028507406,
2021-05-26 01:29:47 PM,-,1622028507410,
2021-05-26 01:29:47 PM,-,1622028507413,
2021-05-26 01:29:47 PM,-,1622028507416,
2021-05-26 01:29:47 PM,-,1622028507420,
2021-05-26 01:29:47 PM,-,1622028507423,
2021-05-26 01:29:47 PM,-,1622028507426,
2021-05-26 01:29:47 PM,-,1622028507430,
2021-05-26 01:29:47 PM,-,1622028507433,
2021-05-26 01:29:47 PM,-,1622028507436,
2021-05-26 01:29:47 PM,-,1622028507440,
2021-05-26 01:29:47 PM,-,1622028507443,
2021-05-26 01:29:47 PM,-,1622028507446,
2021-05-26 01:29:47 PM,-,1622028507450,
2021-05-26 01:29:47 PM,-,1622028507453,
2021-05-26 01:29:47 PM,-,1622028507456,
2021-05-26 01:29:47 PM,-,1622028507460,
2021-05-26 01:29:47 PM,-,1622028507463,
2021-05-26 01:29:47 PM,-,1622028507466,
2021-05-26 01:29:47 PM,-,1622028507470,
2021-05-26 01:29:47 PM,-,1622028507473,
2021-05-26 01:29:47 PM,-,1622028507476,
2021-05-26 01:29:47 PM,-,1622028507480,
2021-05-26 01:29:47 PM,-,1622028507483,
2021-05-26 01:29:47 PM,-,1622028507486,
2021-05-26 01:29:47 PM,-,1622028507490,
2021-05-26 01:29:47 PM,-,1622028507493,
2021-05-26 01:29:47 PM,-,1622028507496,
2021-05-26 01:29:47 PM,-,1622028507500,
2021-05-26 01:29:47 PM,-,1622028507503,
2021-05-26 01:29:47 PM,-,1622028507506,
2021-05-26 01:29:47 PM,-,1622028507510,
2021-05-26 01:29:47 PM,-,1622028507513,
2021-05-26 01:29:47 PM,-,1622028507516,
2021-05-26 01:29:47 PM,-,1622028507520,
2021-05-26 01:29:47 PM,-,1622028507523,
2021-05-26 01:29:47 PM,-,1622028507526,
2021-05-26 01:29:47 PM,-,1622028507530,
2021-05-26 01:29:47 PM,-,1622028507533,
2021-05-26 01:29:47 PM,-,1622028507536,
2021-05-26 01:29:47 PM,-,1622028507540,
2021-05-26 01:29:47 PM,-,1622028507543,
2021-05-26 01:29:47 PM,-,1622028507546,
2021-05-26 01:29:47 PM,-,1622028507550,
2021-05-26 01:29:47 PM,-,1622028507553,
2021-05-26 01:29:47 PM,-,1622028507556,
2021-05-26 01:29:47 PM,-,1622028507560,
2021-05-26 01:29:47 PM,-,1622028507563,
2021-05-26 01:29:47 PM,-,1622028507566,
2021-05-26 01:29:47 PM,-,1622028507570,
2021-05-26 01:29:47 PM,-,1622028507573,
2021-05-26 01:29:47 PM,-,1622028507576,
2021-05-26 01:29:47 PM,-,1622028507580,
2021-05-26 01:29:47 PM,-,1622028507583,
2021-05-26 01:29:47 PM,-,1622028507586,
2021-05-26 01:29:47 PM,-,1622028507590,
2021-05-26 01:29:47 PM,-,1622028507593,
2021-05-26 01:29:47 PM,-,1622028507596,
2021-05-26 01:29:47 PM,-,1622028507600,
2021-05-26 01:29:47 PM,-,1622028507603,
2021-05-26 01:29:47 PM,-,1622028507606,
2021-05-26 01:29:47 PM,-,1622028507610,
2021-05-26 01:29:47 PM,-,1622028507613,
2021-05-26 01:29:47 PM,-,1622028507616,
2021-05-26 01:29:47 PM,-,1622028507620,
2021-05-26 01:29:47 PM,-,1622028507623,
2021-05-26 01:29:47 PM,-,1622028507626,
2021-05-26 01:29:47 PM,-,1622028507630,
2021-05-26 01:29:47 PM,-,1622028507633,
2021-05-26 01:29:47 PM,-,1622028507636,
2021-05-26 01:29:47 PM,-,1622028507640,
2021-05-26 01:29:47 PM,-,1622028507643,
2021-05-26 01:29:47 PM,-,1622028507646,
2021-05-26 01:29:47 PM,-,1622028507650,
2021-05-26 01:29:47 PM,-,1622028507653,
2021-05-26 01:29:47 PM,-,1622028507656,
2021-05-26 01:29:47 PM,-,1622028507660,
2021-05-26 01:29:47 PM,-,1622028507663,
2021-05-26 01:29:47 PM,-,1622028507666,
2021-05-26 01:29:47 PM,-,1622028507670,
2021-05-26 01:29:47 PM,-,1622028507673,
2021-05-26 01:29:47 PM,-,1622028507676,
2021-05-26 01:29:47 PM,-,1622028507680,
2021-05-26 01:29:47 PM,-,1622028507683,
2021-05-26 01:29:47 PM,-,1622028507686,
2021-05-26 01:29:47 PM,-,1622028507690,
2021-05-26 01:29:47 PM,-,1622028507693,
2021-05-26 01:29:47 PM,-,1622028507696,
2021-05-26 01:29:47 PM,-,1622028507700,
2021-05-26 01:29:47 PM,-,1622028507703,
2021-05-26 01:29:47 PM,-,1622028507706,
2021-05-26 01:29:47 PM,-,1622028507710,
2021-05-26 01:29:47 PM,-,1622028507713,
2021-05-26 01:29:47 PM,-,1622028507716,
2021-05-26 01:29:47 PM,-,1622028507720,
2021-05-26 01:29:47 PM,-,1622028507723,
2021-05-26 01:29:47 PM,-,1622028507726,
2021-05-26 01:29:47 PM,-,1622028507730,
2021-05-26 01:29:47 PM,-,1622028507733,
2021-05-26 01:29:47 PM,-,1622028507736,
2021-05-26 01:29:47 PM,-,1622028507740,
2021-05-26 01:29:47 PM,-,1622028507743,
2021-05-26 01:29:47 PM,-,1622028507746,
2021-05-26 01:29:47 PM,-,1622028507750,
2021-05-26 01:29:47 PM,-,1622028507753,
2021-05-26 01:29:47 PM,-,1622028507756,
2021-05-26 01:29:47 PM,-,1622028507760,
2021-05-26 01:29:47 PM,-,1622028507763,
2021-05-26 01:29:47 PM,-,1622028507766,
2021-05-26 01:29:47 PM,-,1622028507770,
2021-05-26 01:29:47 PM,-,1622028507773,
2021-05-26 01:29:47 PM,-,1622028507776,
2021-05-26 01:29:47 PM,-,1622028507780,
2021-05-26 01:29:47 PM,-,1622028507783,
2021-05-26 01:29:47 PM,-,1622028507786,
2021-05-26 01:29:47 PM,-,1622028507790,
2021-05-26 01:29:47 PM,-,1622028507793,
2021-05-26 01:29:47 PM,-,1622028507796,
2021-05-26 01:29:47 PM,-,1622028507800,
2021-05-26 01:29:47 PM,-,1622028507803,
2021-05-26 01:29:47 PM,-,1622028507806,
2021-05-26 01:29:47 PM,-,1622028507810,
2021-05-26 01:29:47 PM,-,1622028507813,
2021-05-26 01:29:47 PM,-,1622028507816,
2021-05-26 01:29:47 PM,-,1622028507820,
2021-05-26 01:29:47 PM,-,1622028507823,
2021-05-26 01:29:47 PM,-,1622028507826,
2021-05-26 01:29:47 PM,-,1622028507830,
2021-05-26 01:29:47 PM,-,1622028507833,
2021-05-26 01:29:47 PM,-,1622028507836,
2021-05-26 01:29:47 PM,-,1622028507840,
2021-05-26 01:29:47 PM,-,1622028507843,
2021-05-26 01:29:47 PM,-,1622028507846,
2021-05-26 01:29:47 PM,-,1622028507850,
2021-05-26 01:29:47 PM,-,1622028507853,
2021-05-26 01:29:47 PM,-,1622028507856,
2021-05-26 01:29:47 PM,-,1622028507860,
2021-05-26 01:29:47 PM,-,1622028507863,
2021-05-26 01:29:47 PM,-,1622028507866,
2021-05-26 01:29:47 PM,-,1622028507870,
2021-05-26 01:29:47 PM,-,1622028507873,
2021-05-26 01:29:47 PM,-,1622028507876,
2021-05-26 01:29:47 PM,-,1622028507880,
2021-05-26 01:29:47 PM,-,1622028507883,
2021-05-26 01:29:47 PM,-,1622028507886,
2021-05-26 01:29:47 PM,-,1622028507890,
2021-05-26 01:29:47 PM,-,1622028507893,
2021-05-26 01:29:47 PM,-,1622028507896,
2021-05-26 01:29:47 PM,-,1622028507900,
2021-05-26 01:29:47 PM,-,1622028507903,
2021-05-26 01:29:47 PM,-,1622028507906,
2021-05-26 01:29:47 PM,-,1622028507910,
2021-05-26 01:29:47 PM,-,1622028507913,
2021-05-26 01:29:47 PM,-,1622028507916,
2021-05-26 01:29:47 PM,-,1622028507920,
2021-05-26 01:29:47 PM,-,1622028507923,
2021-05-26 01:29:47 PM,-,1622028507926,
2021-05-26 01:29:47 PM,-,1622028507930,
2021-05-26 01:29:47 PM,-,1622028507933,
2021-05-26 01:29:47 PM,-,1622028507936,
2021-05-26 01:29:47 PM,-,1622028507940,
2021-05-26 01:29:47 PM,-,1622028507943,
2021-05-26 01:29:47 PM,-,1622028507946,
2021-05-26 01:29:47 PM,-,1622028507950,
2021-05-26 01:29:47 PM,-,1622028507953,
2021-05-26 01:29:47 PM,-,1622028507956,
2021-05-26 01:29:47 PM,-,1622028507960,
2021-05-26 01:29:47 PM,-,1622028507963,
2021-05-26 01:29:47 PM,-,1622028507966,
2021-05-26 01:29:47 PM,-,1622028507970,
2021-05-26 01:29:47 PM,-,1622028507973,
2021-05-26 01:29:47 PM,-,1622028507976,
2021-05-26 01:29:47 PM,-,1622028507980,
2021-05-26 01:29:47 PM,-,1622028507983,
2021-05-26 01:29:47 PM,-,1622028507986,
2021-05-26 01:29:47 PM,-,1622028507990,
2021-05-26 01:29:47 PM,-,1622028507993,
2021-05-26 01:29:47 PM,-,1622028507996,
2021-05-26 01:29:48 PM,-,1622028508000,
2021-05-26 01:29:48 PM,-,1622028508003,
2021-05-26 01:29:48 PM,-,1622028508006,
2021-05-26 01:29:48 PM,-,1622028508010,
2021-05-26 01:29:48 PM,-,1622028508013,
2021-05-26 01:29:48 PM,-,1622028508016,
2021-05-26 01:29:48 PM,-,1622028508020,
2021-05-26 01:29:48 PM,-,1622028508023,
2021-05-26 01:29:48 PM,-,1622028508026,
2021-05-26 01:29:48 PM,-,1622028508030,
2021-05-26 01:29:48 PM,-,1622028508033,
2021-05-26 01:29:48 PM,-,1622028508036,
2021-05-26 01:29:48 PM,-,1622028508040,
2021-05-26 01:29:48 PM,-,1622028508043,
2021-05-26 01:29:48 PM,-,1622028508046,
2021-05-26 01:29:48 PM,-,1622028508050,
2021-05-26 01:29:48 PM,-,1622028508053,
2021-05-26 01:29:48 PM,-,1622028508056,
2021-05-26 01:29:48 PM,-,1622028508060,
2021-05-26 01:29:48 PM,-,1622028508063,
2021-05-26 01:29:48 PM,-,1622028508066,
2021-05-26 01:29:48 PM,-,1622028508070,
2021-05-26 01:29:48 PM,-,1622028508073,
2021-05-26 01:29:48 PM,-,1622028508076,
2021-05-26 01:29:48 PM,-,1622028508080,
2021-05-26 01:29:48 PM,-,1622028508083,
2021-05-26 01:29:48 PM,-,1622028508086,
2021-05-26 01:29:48 PM,-,1622028508090,
2021-05-26 01:29:48 PM,-,1622028508093,
2021-05-26 01:29:48 PM,-,1622028508096,
2021-05-26 01:29:48 PM,-,1622028508100,
2021-05-26 01:29:48 PM,-,1622028508103,
2021-05-26 01:29:48 PM,-,1622028508106,
2021-05-26 01:29:48 PM,-,1622028508110,
2021-05-26 01:29:48 PM,-,1622028508113,
2021-05-26 01:29:48 PM,-,1622028508116,
2021-05-26 01:29:48 PM,-,1622028508120,
2021-05-26 01:29:48 PM,-,1622028508123,
2021-05-26 01:29:48 PM,-,1622028508126,
2021-05-26 01:29:48 PM,-,1622028508130,
2021-05-26 01:29:48 PM,-,1622028508133,
2021-05-26 01:29:48 PM,-,1622028508136,
2021-05-26 01:29:48 PM,-,1622028508140,
2021-05-26 01:29:48 PM,-,1622028508143,
2021-05-26 01:29:48 PM,-,1622028508146,
2021-05-26 01:29:48 PM,-,1622028508150,
2021-05-26 01:29:48 PM,-,1622028508153,
2021-05-26 01:29:48 PM,-,1622028508156,
2021-05-26 01:29:48 PM,-,1622028508160,
2021-05-26 01:29:48 PM,-,1622028508163,
2021-05-26 01:29:48 PM,-,1622028508166,
2021-05-26 01:29:48 PM,-,1622028508170,
2021-05-26 01:29:48 PM,-,1622028508173,
2021-05-26 01:29:48 PM,-,1622028508176,
2021-05-26 01:29:48 PM,-,1622028508180,
2021-05-26 01:29:48 PM,-,1622028508183,
2021-05-26 01:29:48 PM,-,1622028508186,
2021-05-26 01:29:48 PM,-,1622028508190,
2021-05-26 01:29:48 PM,-,1622028508193,
2021-05-26 01:29:48 PM,-,1622028508196,
2021-05-26 01:29:48 PM,-,1622028508200,
2021-05-26 01:29:48 PM,-,1622028508203,
2021-05-26 01:29:48 PM,-,1622028508206,
2021-05-26 01:29:48 PM,-,1622028508210,
2021-05-26 01:29:48 PM,-,1622028508213,
2021-05-26 01:29:48 PM,-,1622028508216,
2021-05-26 01:29:48 PM,-,1622028508220,
2021-05-26 01:29:48 PM,-,1622028508223,
2021-05-26 01:29:48 PM,-,1622028508226,
2021-05-26 01:29:48 PM,-,1622028508230,
2021-05-26 01:29:48 PM,-,1622028508233,
2021-05-26 01:29:48 PM,-,1622028508236,
2021-05-26 01:29:48 PM,-,1622028508240,
2021-05-26 01:29:48 PM,-,1622028508243,
2021-05-26 01:29:48 PM,-,1622028508246,
2021-05-26 01:29:48 PM,-,1622028508250,
2021-05-26 01:29:48 PM,-,1622028508253,
2021-05-26 01:29:48 PM,-,1622028508256,
2021-05-26 01:29:48 PM,-,1622028508260,
2021-05-26 01:29:48 PM,-,1622028508263,
2021-05-26 01:29:48 PM,-,1622028508266,
2021-05-26 01:29:48 PM,-,1622028508270,
2021-05-26 01:29:48 PM,-,1622028508273,
2021-05-26 01:29:48 PM,-,1622028508276,
2021-05-26 01:29:48 PM,-,1622028508280,
2021-05-26 01:29:48 PM,-,1622028508283,
2021-05-26 01:29:48 PM,-,1622028508286,
2021-05-26 01:29:48 PM,-,1622028508290,
2021-05-26 01:29:48 PM,-,1622028508293,
2021-05-26 01:29:48 PM,-,1622028508296,
2021-05-26 01:29:48 PM,-,1622028508300,
2021-05-26 01:29:48 PM,-,1622028508303,
2021-05-26 01:29:48 PM,-,1622028508306,
2021-05-26 01:29:48 PM,-,1622028508310,
2021-05-26 01:29:48 PM,-,1622028508313,
2021-05-26 01:29:48 PM,-,1622028508316,
2021-05-26 01:29:48 PM,-,1622028508320,
2021-05-26 01:29:48 PM,-,1622028508323,
2021-05-26 01:29:48 PM,-,1622028508326,
2021-05-26 01:29:48 PM,-,1622028508330,
2021-05-26 01:29:48 PM,-,1622028508333,
2021-05-26 01:29:48 PM,-,1622028508336,
2021-05-26 01:29:48 PM,-,1622028508340,
2021-05-26 01:29:48 PM,-,1622028508343,
2021-05-26 01:29:48 PM,-,1622028508346,
2021-05-26 01:29:48 PM,-,1622028508350,
2021-05-26 01:29:48 PM,-,1622028508353,
2021-05-26 01:29:48 PM,-,1622028508356,
2021-05-26 01:29:48 PM,-,1622028508360,
2021-05-26 01:29:48 PM,-,1622028508363,
2021-05-26 01:29:48 PM,-,1622028508366,
2021-05-26 01:29:48 PM,-,1622028508370,
2021-05-26 01:29:48 PM,-,1622028508373,
2021-05-26 01:29:48 PM,-,1622028508376,
2021-05-26 01:29:48 PM,-,1622028508380,
2021-05-26 01:29:48 PM,-,1622028508383,
2021-05-26 01:29:48 PM,-,1622028508386,
2021-05-26 01:29:48 PM,-,1622028508390,
2021-05-26 01:29:48 PM,-,1622028508393,
2021-05-26 01:29:48 PM,-,1622028508396,
2021-05-26 01:29:48 PM,-,1622028508400,
2021-05-26 01:29:48 PM,-,1622028508403,
2021-05-26 01:29:48 PM,-,1622028508406,
2021-05-26 01:29:48 PM,-,1622028508410,
2021-05-26 01:29:48 PM,-,1622028508413,
2021-05-26 01:29:48 PM,-,1622028508416,
2021-05-26 01:29:48 PM,-,1622028508420,
2021-05-26 01:29:48 PM,-,1622028508423,
2021-05-26 01:29:48 PM,-,1622028508426,
2021-05-26 01:29:48 PM,-,1622028508430,
2021-05-26 01:29:48 PM,-,1622028508433,
2021-05-26 01:29:48 PM,-,1622028508436,
2021-05-26 01:29:48 PM,-,1622028508440,
2021-05-26 01:29:48 PM,-,1622028508443,
2021-05-26 01:29:48 PM,-,1622028508446,
2021-05-26 01:29:48 PM,-,1622028508450,
2021-05-26 01:29:48 PM,-,1622028508453,
2021-05-26 01:29:48 PM,-,1622028508456,
2021-05-26 01:29:48 PM,-,1622028508460,
2021-05-26 01:29:48 PM,-,1622028508463,
2021-05-26 01:29:48 PM,-,1622028508466,
2021-05-26 01:29:48 PM,-,1622028508470,
2021-05-26 01:29:48 PM,-,1622028508473,
2021-05-26 01:29:48 PM,-,1622028508476,
2021-05-26 01:29:48 PM,-,1622028508480,
2021-05-26 01:29:48 PM,-,1622028508483,
2021-05-26 01:29:48 PM,-,1622028508486,
2021-05-26 01:29:48 PM,-,1622028508490,
2021-05-26 01:29:48 PM,-,1622028508493,
2021-05-26 01:29:48 PM,-,1622028508496,
2021-05-26 01:29:48 PM,-,1622028508500,
2021-05-26 01:29:48 PM,-,1622028508503,
2021-05-26 01:29:48 PM,-,1622028508506,
2021-05-26 01:29:48 PM,-,1622028508510,
2021-05-26 01:29:48 PM,-,1622028508513,
2021-05-26 01:29:48 PM,-,1622028508516,
2021-05-26 01:29:48 PM,-,1622028508520,
2021-05-26 01:29:48 PM,-,1622028508523,
2021-05-26 01:29:48 PM,-,1622028508526,
2021-05-26 01:29:48 PM,-,1622028508530,
2021-05-26 01:29:48 PM,-,1622028508533,
2021-05-26 01:29:48 PM,-,1622028508536,
2021-05-26 01:29:48 PM,-,1622028508540,
2021-05-26 01:29:48 PM,-,1622028508543,
2021-05-26 01:29:48 PM,-,1622028508546,
2021-05-26 01:29:48 PM,-,1622028508550,
2021-05-26 01:29:48 PM,-,1622028508553,
2021-05-26 01:29:48 PM,-,1622028508556,
2021-05-26 01:29:48 PM,-,1622028508560,
2021-05-26 01:29:48 PM,-,1622028508563,
2021-05-26 01:29:48 PM,-,1622028508566,
2021-05-26 01:29:48 PM,-,1622028508570,
2021-05-26 01:29:48 PM,-,1622028508573,
2021-05-26 01:29:48 PM,-,1622028508576,
2021-05-26 01:29:48 PM,-,1622028508580,
2021-05-26 01:29:48 PM,-,1622028508583,
2021-05-26 01:29:48 PM,-,1622028508586,
2021-05-26 01:29:48 PM,-,1622028508590,
2021-05-26 01:29:48 PM,-,1622028508593,
2021-05-26 01:29:48 PM,-,1622028508596,
2021-05-26 01:29:48 PM,-,1622028508600,
2021-05-26 01:29:48 PM,-,1622028508603,
2021-05-26 01:29:48 PM,-,1622028508606,
2021-05-26 01:29:48 PM,-,1622028508610,
2021-05-26 01:29:48 PM,-,1622028508613,
2021-05-26 01:29:48 PM,-,1622028508616,
2021-05-26 01:29:48 PM,-,1622028508620,
2021-05-26 01:29:48 PM,-,1622028508623,
2021-05-26 01:29:48 PM,-,1622028508626,
2021-05-26 01:29:48 PM,-,1622028508630,
2021-05-26 01:29:48 PM,-,1622028508633,
2021-05-26 01:29:48 PM,-,1622028508636,
2021-05-26 01:29:48 PM,-,1622028508640,
2021-05-26 01:29:48 PM,-,1622028508643,
2021-05-26 01:29:48 PM,-,1622028508646,
2021-05-26 01:29:48 PM,-,1622028508650,
2021-05-26 01:29:48 PM,-,1622028508653,
2021-05-26 01:29:48 PM,-,1622028508656,
2021-05-26 01:29:48 PM,-,1622028508660,
2021-05-26 01:29:48 PM,-,1622028508663,
2021-05-26 01:29:48 PM,-,1622028508666,
2021-05-26 01:29:48 PM,-,1622028508670,
2021-05-26 01:29:48 PM,-,1622028508673,
2021-05-26 01:29:48 PM,-,1622028508676,
2021-05-26 01:29:48 PM,-,1622028508680,
2021-05-26 01:29:48 PM,-,1622028508683,
2021-05-26 01:29:48 PM,-,1622028508686,
2021-05-26 01:29:48 PM,-,1622028508690,
2021-05-26 01:29:48 PM,-,1622028508693,
2021-05-26 01:29:48 PM,-,1622028508696,
2021-05-26 01:29:48 PM,-,1622028508700,
2021-05-26 01:29:48 PM,-,1622028508703,
2021-05-26 01:29:48 PM,-,1622028508706,
2021-05-26 01:29:48 PM,-,1622028508710,
2021-05-26 01:29:48 PM,-,1622028508713,
2021-05-26 01:29:48 PM,-,1622028508716,
2021-05-26 01:29:48 PM,-,1622028508720,
2021-05-26 01:29:48 PM,-,1622028508723,
2021-05-26 01:29:48 PM,-,1622028508726,
2021-05-26 01:29:48 PM,-,1622028508730,
2021-05-26 01:29:48 PM,-,1622028508733,
2021-05-26 01:29:48 PM,-,1622028508736,
2021-05-26 01:29:48 PM,-,1622028508740,
2021-05-26 01:29:48 PM,-,1622028508743,
2021-05-26 01:29:48 PM,-,1622028508746,
2021-05-26 01:29:48 PM,-,1622028508750,
2021-05-26 01:29:48 PM,-,1622028508753,
2021-05-26 01:29:48 PM,-,1622028508756,
2021-05-26 01:29:48 PM,-,1622028508760,
2021-05-26 01:29:48 PM,-,1622028508763,
2021-05-26 01:29:48 PM,-,1622028508766,
2021-05-26 01:29:48 PM,-,1622028508770,
2021-05-26 01:29:48 PM,-,1622028508773,
2021-05-26 01:29:48 PM,-,1622028508776,
2021-05-26 01:29:48 PM,-,1622028508780,
2021-05-26 01:29:48 PM,-,1622028508783,
2021-05-26 01:29:48 PM,-,1622028508786,
2021-05-26 01:29:48 PM,-,1622028508790,
2021-05-26 01:29:48 PM,-,1622028508793,
2021-05-26 01:29:48 PM,-,1622028508796,
2021-05-26 01:29:48 PM,-,1622028508800,
2021-05-26 01:29:48 PM,-,1622028508803,
2021-05-26 01:29:48 PM,-,1622028508806,
2021-05-26 01:29:48 PM,-,1622028508810,
2021-05-26 01:29:48 PM,-,1622028508813,
2021-05-26 01:29:48 PM,-,1622028508816,
2021-05-26 01:29:48 PM,-,1622028508820,
2021-05-26 01:29:48 PM,-,1622028508823,
2021-05-26 01:29:48 PM,-,1622028508826,
2021-05-26 01:29:48 PM,-,1622028508830,
2021-05-26 01:29:48 PM,-,1622028508833,
2021-05-26 01:29:48 PM,-,1622028508836,
2021-05-26 01:29:48 PM,-,1622028508840,
2021-05-26 01:29:48 PM,-,1622028508843,
2021-05-26 01:29:48 PM,-,1622028508846,
2021-05-26 01:29:48 PM,-,1622028508850,
2021-05-26 01:29:48 PM,-,1622028508853,
2021-05-26 01:29:48 PM,-,1622028508856,
2021-05-26 01:29:48 PM,-,1622028508860,
2021-05-26 01:29:48 PM,-,1622028508863,
2021-05-26 01:29:48 PM,-,1622028508866,
2021-05-26 01:29:48 PM,-,1622028508870,
2021-05-26 01:29:48 PM,-,1622028508873,
2021-05-26 01:29:48 PM,-,1622028508876,
2021-05-26 01:29:48 PM,-,1622028508880,
2021-05-26 01:29:48 PM,-,1622028508883,
2021-05-26 01:29:48 PM,-,1622028508886,
2021-05-26 01:29:48 PM,-,1622028508890,
2021-05-26 01:29:48 PM,-,1622028508893,
2021-05-26 01:29:48 PM,-,1622028508896,
2021-05-26 01:29:48 PM,-,1622028508900,
2021-05-26 01:29:48 PM,-,1622028508903,
2021-05-26 01:29:48 PM,-,1622028508906,
2021-05-26 01:29:48 PM,-,1622028508910,
2021-05-26 01:29:48 PM,-,1622028508913,
2021-05-26 01:29:48 PM,-,1622028508916,
2021-05-26 01:29:48 PM,-,1622028508920,
2021-05-26 01:29:48 PM,-,1622028508923,
2021-05-26 01:29:48 PM,-,1622028508926,
2021-05-26 01:29:48 PM,-,1622028508930,
2021-05-26 01:29:48 PM,-,1622028508933,
2021-05-26 01:29:48 PM,-,1622028508936,
2021-05-26 01:29:48 PM,-,1622028508940,
2021-05-26 01:29:48 PM,-,1622028508943,
2021-05-26 01:29:48 PM,-,1622028508946,
2021-05-26 01:29:48 PM,-,1622028508950,
2021-05-26 01:29:48 PM,-,1622028508953,
2021-05-26 01:29:48 PM,-,1622028508956,
2021-05-26 01:29:48 PM,-,1622028508960,
2021-05-26 01:29:48 PM,-,1622028508963,
2021-05-26 01:29:48 PM,-,1622028508966,
2021-05-26 01:29:48 PM,-,1622028508970,
2021-05-26 01:29:48 PM,-,1622028508973,
2021-05-26 01:29:48 PM,-,1622028508976,
2021-05-26 01:29:48 PM,-,1622028508980,
2021-05-26 01:29:48 PM,-,1622028508983,
2021-05-26 01:29:48 PM,-,1622028508986,
2021-05-26 01:29:48 PM,-,1622028508990,
2021-05-26 01:29:48 PM,-,1622028508993,
2021-05-26 01:29:48 PM,-,1622028508996,
2021-05-26 01:29:49 PM,-,1622028509000,
2021-05-26 01:29:49 PM,-,1622028509003,
2021-05-26 01:29:49 PM,-,1622028509006,
2021-05-26 01:29:49 PM,-,1622028509010,
2021-05-26 01:29:49 PM,-,1622028509013,
2021-05-26 01:29:49 PM,-,1622028509016,
2021-05-26 01:29:49 PM,-,1622028509020,
2021-05-26 01:29:49 PM,-,1622028509023,
2021-05-26 01:29:49 PM,-,1622028509026,
2021-05-26 01:29:49 PM,-,1622028509030,
2021-05-26 01:29:49 PM,-,1622028509033,
2021-05-26 01:29:49 PM,-,1622028509036,
2021-05-26 01:29:49 PM,-,1622028509040,
2021-05-26 01:29:49 PM,-,1622028509043,
2021-05-26 01:29:49 PM,-,1622028509046,
2021-05-26 01:29:49 PM,-,1622028509050,
2021-05-26 01:29:49 PM,-,1622028509053,
2021-05-26 01:29:49 PM,-,1622028509056,
2021-05-26 01:29:49 PM,-,1622028509060,
2021-05-26 01:29:49 PM,-,1622028509063,
2021-05-26 01:29:49 PM,-,1622028509066,
2021-05-26 01:29:49 PM,-,1622028509070,
2021-05-26 01:29:49 PM,-,1622028509073,
2021-05-26 01:29:49 PM,-,1622028509076,
2021-05-26 01:29:49 PM,-,1622028509080,
2021-05-26 01:29:49 PM,-,1622028509083,
2021-05-26 01:29:49 PM,-,1622028509086,
2021-05-26 01:29:49 PM,-,1622028509090,
2021-05-26 01:29:49 PM,-,1622028509093,
2021-05-26 01:29:49 PM,-,1622028509096,
2021-05-26 01:29:49 PM,-,1622028509100,
2021-05-26 01:29:49 PM,-,1622028509103,
2021-05-26 01:29:49 PM,-,1622028509106,
2021-05-26 01:29:49 PM,-,1622028509110,
2021-05-26 01:29:49 PM,-,1622028509113,
2021-05-26 01:29:49 PM,-,1622028509116,
2021-05-26 01:29:49 PM,-,1622028509120,
2021-05-26 01:29:49 PM,-,1622028509123,
2021-05-26 01:29:49 PM,-,1622028509126,
2021-05-26 01:29:49 PM,-,1622028509130,
2021-05-26 01:29:49 PM,-,1622028509133,
2021-05-26 01:29:49 PM,-,1622028509136,
2021-05-26 01:29:49 PM,-,1622028509140,
2021-05-26 01:29:49 PM,-,1622028509143,
2021-05-26 01:29:49 PM,-,1622028509146,
2021-05-26 01:29:49 PM,-,1622028509150,
2021-05-26 01:29:49 PM,-,1622028509153,
2021-05-26 01:29:49 PM,-,1622028509156,
2021-05-26 01:29:49 PM,-,1622028509160,
2021-05-26 01:29:49 PM,-,1622028509163,
2021-05-26 01:29:49 PM,-,1622028509166,
2021-05-26 01:29:49 PM,-,1622028509170,
2021-05-26 01:29:49 PM,-,1622028509173,
2021-05-26 01:29:49 PM,-,1622028509176,
2021-05-26 01:29:49 PM,-,1622028509180,
2021-05-26 01:29:49 PM,-,1622028509183,
2021-05-26 01:29:49 PM,-,1622028509186,
2021-05-26 01:29:49 PM,-,1622028509190,
2021-05-26 01:29:49 PM,-,1622028509193,
2021-05-26 01:29:49 PM,-,1622028509196,
2021-05-26 01:29:49 PM,-,1622028509200,
2021-05-26 01:29:49 PM,-,1622028509203,
2021-05-26 01:29:49 PM,-,1622028509206,
2021-05-26 01:29:49 PM,-,1622028509210,
2021-05-26 01:29:49 PM,-,1622028509213,
2021-05-26 01:29:49 PM,-,1622028509216,
2021-05-26 01:29:49 PM,-,1622028509220,
2021-05-26 01:29:49 PM,-,1622028509223,
2021-05-26 01:29:49 PM,-,1622028509226,
2021-05-26 01:29:49 PM,-,1622028509230,
2021-05-26 01:29:49 PM,-,1622028509233,
2021-05-26 01:29:49 PM,-,1622028509236,
2021-05-26 01:29:49 PM,-,1622028509240,
2021-05-26 01:29:49 PM,-,1622028509243,
2021-05-26 01:29:49 PM,-,1622028509246,
2021-05-26 01:29:49 PM,-,1622028509250,
2021-05-26 01:29:49 PM,-,1622028509253,
2021-05-26 01:29:49 PM,-,1622028509256,
2021-05-26 01:29:49 PM,-,1622028509260,
2021-05-26 01:29:49 PM,-,1622028509263,
2021-05-26 01:29:49 PM,-,1622028509266,
2021-05-26 01:29:49 PM,-,1622028509270,
2021-05-26 01:29:49 PM,-,1622028509273,
2021-05-26 01:29:49 PM,-,1622028509276,
2021-05-26 01:29:49 PM,-,1622028509280,
2021-05-26 01:29:49 PM,-,1622028509283,
2021-05-26 01:29:49 PM,-,1622028509286,
2021-05-26 01:29:49 PM,-,1622028509290,
2021-05-26 01:29:49 PM,-,1622028509293,
2021-05-26 01:29:49 PM,-,1622028509296,
2021-05-26 01:29:49 PM,-,1622028509300,
2021-05-26 01:29:49 PM,-,1622028509303,
2021-05-26 01:29:49 PM,-,1622028509306,
2021-05-26 01:29:49 PM,-,1622028509310,
2021-05-26 01:29:49 PM,-,1622028509313,
2021-05-26 01:29:49 PM,-,1622028509316,
2021-05-26 01:29:49 PM,-,1622028509320,
2021-05-26 01:29:49 PM,-,1622028509323,
2021-05-26 01:29:49 PM,-,1622028509326,
2021-05-26 01:29:49 PM,-,1622028509330,
2021-05-26 01:29:49 PM,-,1622028509333,
2021-05-26 01:29:49 PM,-,1622028509336,
2021-05-26 01:29:49 PM,-,1622028509340,
2021-05-26 01:29:49 PM,-,1622028509343,
2021-05-26 01:29:49 PM,-,1622028509346,
2021-05-26 01:29:49 PM,-,1622028509350,
2021-05-26 01:29:49 PM,-,1622028509353,
2021-05-26 01:29:49 PM,-,1622028509356,
2021-05-26 01:29:49 PM,-,1622028509360,
2021-05-26 01:29:49 PM,-,1622028509363,
2021-05-26 01:29:49 PM,-,1622028509366,
2021-05-26 01:29:49 PM,-,1622028509370,
2021-05-26 01:29:49 PM,-,1622028509373,
2021-05-26 01:29:49 PM,-,1622028509376,
2021-05-26 01:29:49 PM,-,1622028509380,
2021-05-26 01:29:49 PM,-,1622028509383,
2021-05-26 01:29:49 PM,-,1622028509386,
2021-05-26 01:29:49 PM,-,1622028509390,
2021-05-26 01:29:49 PM,-,1622028509393,
2021-05-26 01:29:49 PM,-,1622028509396,
2021-05-26 01:29:49 PM,-,1622028509400,
2021-05-26 01:29:49 PM,-,1622028509403,
2021-05-26 01:29:49 PM,-,1622028509406,
2021-05-26 01:29:49 PM,-,1622028509410,
2021-05-26 01:29:49 PM,-,1622028509413,
2021-05-26 01:29:49 PM,-,1622028509416,
2021-05-26 01:29:49 PM,-,1622028509420,
2021-05-26 01:29:49 PM,-,1622028509423,
2021-05-26 01:29:49 PM,-,1622028509426,
2021-05-26 01:29:49 PM,-,1622028509430,
2021-05-26 01:29:49 PM,-,1622028509433,
2021-05-26 01:29:49 PM,-,1622028509436,
2021-05-26 01:29:49 PM,-,1622028509440,
2021-05-26 01:29:49 PM,-,1622028509443,
2021-05-26 01:29:49 PM,-,1622028509446,
2021-05-26 01:29:49 PM,-,1622028509450,
2021-05-26 01:29:49 PM,-,1622028509453,
2021-05-26 01:29:49 PM,-,1622028509456,
2021-05-26 01:29:49 PM,-,1622028509460,
2021-05-26 01:29:49 PM,-,1622028509463,
2021-05-26 01:29:49 PM,-,1622028509466,
2021-05-26 01:29:49 PM,-,1622028509470,
2021-05-26 01:29:49 PM,-,1622028509473,
2021-05-26 01:29:49 PM,-,1622028509476,
2021-05-26 01:29:49 PM,-,1622028509480,
2021-05-26 01:29:49 PM,-,1622028509483,
2021-05-26 01:29:49 PM,-,1622028509486,
2021-05-26 01:29:49 PM,-,1622028509490,
2021-05-26 01:29:49 PM,-,1622028509493,
2021-05-26 01:29:49 PM,-,1622028509496,
2021-05-26 01:29:49 PM,-,1622028509500,
2021-05-26 01:29:49 PM,-,1622028509503,
2021-05-26 01:29:49 PM,-,1622028509506,
2021-05-26 01:29:49 PM,-,1622028509510,
2021-05-26 01:29:49 PM,-,1622028509513,
2021-05-26 01:29:49 PM,-,1622028509516,
2021-05-26 01:29:49 PM,-,1622028509520,
2021-05-26 01:29:49 PM,-,1622028509523,
2021-05-26 01:29:49 PM,-,1622028509526,
2021-05-26 01:29:49 PM,-,1622028509530,
2021-05-26 01:29:49 PM,-,1622028509533,
2021-05-26 01:29:49 PM,-,1622028509536,
2021-05-26 01:29:49 PM,-,1622028509540,
2021-05-26 01:29:49 PM,-,1622028509543,
2021-05-26 01:29:49 PM,-,1622028509546,
2021-05-26 01:29:49 PM,-,1622028509550,
2021-05-26 01:29:49 PM,-,1622028509553,
2021-05-26 01:29:49 PM,-,1622028509556,
2021-05-26 01:29:49 PM,-,1622028509560,
2021-05-26 01:29:49 PM,-,1622028509563,
2021-05-26 01:29:49 PM,-,1622028509566,
2021-05-26 01:29:49 PM,-,1622028509570,
2021-05-26 01:29:49 PM,-,1622028509573,
2021-05-26 01:29:49 PM,-,1622028509576,
2021-05-26 01:29:49 PM,-,1622028509580,
2021-05-26 01:29:49 PM,-,1622028509583,
2021-05-26 01:29:49 PM,-,1622028509586,
2021-05-26 01:29:49 PM,-,1622028509590,
2021-05-26 01:29:49 PM,-,1622028509593,
2021-05-26 01:29:49 PM,-,1622028509596,
2021-05-26 01:29:49 PM,-,1622028509600,
2021-05-26 01:29:49 PM,-,1622028509603,
2021-05-26 01:29:49 PM,-,1622028509606,
2021-05-26 01:29:49 PM,-,1622028509610,
2021-05-26 01:29:49 PM,-,1622028509613,
2021-05-26 01:29:49 PM,-,1622028509616,
2021-05-26 01:29:49 PM,-,1622028509620,
2021-05-26 01:29:49 PM,-,1622028509623,
2021-05-26 01:29:49 PM,-,1622028509626,
2021-05-26 01:29:49 PM,-,1622028509630,
2021-05-26 01:29:49 PM,-,1622028509633,
2021-05-26 01:29:49 PM,-,1622028509636,
2021-05-26 01:29:49 PM,-,1622028509640,
2021-05-26 01:29:49 PM,-,1622028509643,
2021-05-26 01:29:49 PM,-,1622028509646,
2021-05-26 01:29:49 PM,-,1622028509650,
2021-05-26 01:29:49 PM,-,1622028509653,
2021-05-26 01:29:49 PM,-,1622028509656,
2021-05-26 01:29:49 PM,-,1622028509660,
2021-05-26 01:29:49 PM,-,1622028509663,
2021-05-26 01:29:49 PM,-,1622028509666,
2021-05-26 01:29:49 PM,-,1622028509670,
2021-05-26 01:29:49 PM,-,1622028509673,
2021-05-26 01:29:49 PM,-,1622028509676,
2021-05-26 01:29:49 PM,-,1622028509680,
2021-05-26 01:29:49 PM,-,1622028509683,
2021-05-26 01:29:49 PM,-,1622028509686,
2021-05-26 01:29:49 PM,-,1622028509690,
2021-05-26 01:29:49 PM,-,1622028509693,
2021-05-26 01:29:49 PM,-,1622028509696,
2021-05-26 01:29:49 PM,-,1622028509700,
2021-05-26 01:29:49 PM,-,1622028509703,
2021-05-26 01:29:49 PM,-,1622028509706,
2021-05-26 01:29:49 PM,-,1622028509710,
2021-05-26 01:29:49 PM,-,1622028509713,
2021-05-26 01:29:49 PM,-,1622028509716,
2021-05-26 01:29:49 PM,-,1622028509720,
2021-05-26 01:29:49 PM,-,1622028509723,
2021-05-26 01:29:49 PM,-,1622028509726,
2021-05-26 01:29:49 PM,-,1622028509730,
2021-05-26 01:29:49 PM,-,1622028509733,
2021-05-26 01:29:49 PM,-,1622028509736,
2021-05-26 01:29:49 PM,-,1622028509740,
2021-05-26 01:29:49 PM,-,1622028509743,
2021-05-26 01:29:49 PM,-,1622028509746,
2021-05-26 01:29:49 PM,-,1622028509750,
2021-05-26 01:29:49 PM,-,1622028509753,
2021-05-26 01:29:49 PM,-,1622028509756,
2021-05-26 01:29:49 PM,-,1622028509760,
2021-05-26 01:29:49 PM,-,1622028509763,
2021-05-26 01:29:49 PM,-,1622028509766,
2021-05-26 01:29:49 PM,-,1622028509770,
2021-05-26 01:29:49 PM,-,1622028509773,
2021-05-26 01:29:49 PM,-,1622028509776,
2021-05-26 01:29:49 PM,-,1622028509780,
2021-05-26 01:29:49 PM,-,1622028509783,
2021-05-26 01:29:49 PM,-,1622028509786,
2021-05-26 01:29:49 PM,-,1622028509790,
2021-05-26 01:29:49 PM,-,1622028509793,
2021-05-26 01:29:49 PM,-,1622028509796,
2021-05-26 01:29:49 PM,-,1622028509800,
2021-05-26 01:29:49 PM,-,1622028509803,
2021-05-26 01:29:49 PM,-,1622028509806,
2021-05-26 01:29:49 PM,-,1622028509810,
2021-05-26 01:29:49 PM,-,1622028509813,
2021-05-26 01:29:49 PM,-,1622028509816,
2021-05-26 01:29:49 PM,-,1622028509820,
2021-05-26 01:29:49 PM,-,1622028509823,
2021-05-26 01:29:49 PM,-,1622028509826,
2021-05-26 01:29:49 PM,-,1622028509830,
2021-05-26 01:29:49 PM,-,1622028509833,
2021-05-26 01:29:49 PM,-,1622028509836,
2021-05-26 01:29:49 PM,-,1622028509840,
2021-05-26 01:29:49 PM,-,1622028509843,
2021-05-26 01:29:49 PM,-,1622028509846,
2021-05-26 01:29:49 PM,-,1622028509850,
2021-05-26 01:29:49 PM,-,1622028509853,
2021-05-26 01:29:49 PM,-,1622028509856,
2021-05-26 01:29:49 PM,-,1622028509860,
2021-05-26 01:29:49 PM,-,1622028509863,
2021-05-26 01:29:49 PM,-,1622028509866,
2021-05-26 01:29:49 PM,-,1622028509870,
2021-05-26 01:29:49 PM,-,1622028509873,
2021-05-26 01:29:49 PM,-,1622028509876,
2021-05-26 01:29:49 PM,-,1622028509880,
2021-05-26 01:29:49 PM,-,1622028509883,
2021-05-26 01:29:49 PM,-,1622028509886,
2021-05-26 01:29:49 PM,-,1622028509890,
2021-05-26 01:29:49 PM,-,1622028509893,
2021-05-26 01:29:49 PM,-,1622028509896,
2021-05-26 01:29:49 PM,-,1622028509900,
2021-05-26 01:29:49 PM,-,1622028509903,
2021-05-26 01:29:49 PM,-,1622028509906,
2021-05-26 01:29:49 PM,-,1622028509910,
2021-05-26 01:29:49 PM,-,1622028509913,
2021-05-26 01:29:49 PM,-,1622028509916,
2021-05-26 01:29:49 PM,-,1622028509920,
2021-05-26 01:29:49 PM,-,1622028509923,
2021-05-26 01:29:49 PM,-,1622028509926,
2021-05-26 01:29:49 PM,-,1622028509930,
2021-05-26 01:29:49 PM,-,1622028509933,
2021-05-26 01:29:49 PM,-,1622028509936,
2021-05-26 01:29:49 PM,-,1622028509940,
2021-05-26 01:29:49 PM,-,1622028509943,
2021-05-26 01:29:49 PM,-,1622028509946,
2021-05-26 01:29:49 PM,-,1622028509950,
2021-05-26 01:29:49 PM,-,1622028509953,
2021-05-26 01:29:49 PM,-,1622028509956,
2021-05-26 01:29:49 PM,-,1622028509960,
2021-05-26 01:29:49 PM,-,1622028509963,
2021-05-26 01:29:49 PM,-,1622028509966,
2021-05-26 01:29:49 PM,-,1622028509970,
2021-05-26 01:29:49 PM,-,1622028509973,
2021-05-26 01:29:49 PM,-,1622028509976,
2021-05-26 01:29:49 PM,-,1622028509980,
2021-05-26 01:29:49 PM,-,1622028509983,
2021-05-26 01:29:49 PM,-,1622028509986,
2021-05-26 01:29:49 PM,-,1622028509990,
2021-05-26 01:29:49 PM,-,1622028509993,
2021-05-26 01:29:49 PM,-,1622028509996,
2021-05-26 01:29:50 PM,-,1622028510000,
2021-05-26 01:29:50 PM,-,1622028510003,
2021-05-26 01:29:50 PM,-,1622028510006,
2021-05-26 01:29:50 PM,-,1622028510010,
2021-05-26 01:29:50 PM,-,1622028510013,
2021-05-26 01:29:50 PM,-,1622028510016,
2021-05-26 01:29:50 PM,-,1622028510020,
2021-05-26 01:29:50 PM,-,1622028510023,
2021-05-26 01:29:50 PM,-,1622028510026,
2021-05-26 01:29:50 PM,-,1622028510030,
2021-05-26 01:29:50 PM,-,1622028510033,
2021-05-26 01:29:50 PM,-,1622028510036,
2021-05-26 01:29:50 PM,-,1622028510040,
2021-05-26 01:29:50 PM,-,1622028510043,
2021-05-26 01:29:50 PM,-,1622028510046,
2021-05-26 01:29:50 PM,-,1622028510050,
2021-05-26 01:29:50 PM,-,1622028510053,
2021-05-26 01:29:50 PM,-,1622028510056,
2021-05-26 01:29:50 PM,-,1622028510060,
2021-05-26 01:29:50 PM,-,1622028510063,
2021-05-26 01:29:50 PM,-,1622028510066,
2021-05-26 01:29:50 PM,-,1622028510070,
2021-05-26 01:29:50 PM,-,1622028510073,
2021-05-26 01:29:50 PM,-,1622028510076,
2021-05-26 01:29:50 PM,-,1622028510080,
2021-05-26 01:29:50 PM,-,1622028510083,
2021-05-26 01:29:50 PM,-,1622028510086,
2021-05-26 01:29:50 PM,-,1622028510090,
2021-05-26 01:29:50 PM,-,1622028510093,
2021-05-26 01:29:50 PM,-,1622028510096,
2021-05-26 01:29:50 PM,-,1622028510100,
2021-05-26 01:29:50 PM,-,1622028510103,
2021-05-26 01:29:50 PM,-,1622028510106,
2021-05-26 01:29:50 PM,-,1622028510110,
2021-05-26 01:29:50 PM,-,1622028510113,
2021-05-26 01:29:50 PM,-,1622028510116,
2021-05-26 01:29:50 PM,-,1622028510120,
2021-05-26 01:29:50 PM,-,1622028510123,
2021-05-26 01:29:50 PM,-,1622028510126,
2021-05-26 01:29:50 PM,-,1622028510130,
2021-05-26 01:29:50 PM,-,1622028510133,
2021-05-26 01:29:50 PM,-,1622028510136,
2021-05-26 01:29:50 PM,-,1622028510140,
2021-05-26 01:29:50 PM,-,1622028510143,
2021-05-26 01:29:50 PM,-,1622028510146,
2021-05-26 01:29:50 PM,-,1622028510150,
2021-05-26 01:29:50 PM,-,1622028510153,
2021-05-26 01:29:50 PM,-,1622028510156,
2021-05-26 01:29:50 PM,-,1622028510160,
2021-05-26 01:29:50 PM,-,1622028510163,
2021-05-26 01:29:50 PM,-,1622028510166,
2021-05-26 01:29:50 PM,-,1622028510170,
2021-05-26 01:29:50 PM,-,1622028510173,
2021-05-26 01:29:50 PM,-,1622028510176,
2021-05-26 01:29:50 PM,-,1622028510180,
2021-05-26 01:29:50 PM,-,1622028510183,
2021-05-26 01:29:50 PM,-,1622028510186,
2021-05-26 01:29:50 PM,-,1622028510190,
2021-05-26 01:29:50 PM,-,1622028510193,
2021-05-26 01:29:50 PM,-,1622028510196,
2021-05-26 01:29:50 PM,-,1622028510200,
2021-05-26 01:29:50 PM,-,1622028510203,
2021-05-26 01:29:50 PM,-,1622028510206,
2021-05-26 01:29:50 PM,-,1622028510210,
2021-05-26 01:29:50 PM,-,1622028510213,
2021-05-26 01:29:50 PM,-,1622028510216,
2021-05-26 01:29:50 PM,-,1622028510220,
2021-05-26 01:29:50 PM,-,1622028510223,
2021-05-26 01:29:50 PM,-,1622028510226,
2021-05-26 01:29:50 PM,-,1622028510230,
2021-05-26 01:29:50 PM,-,1622028510233,
2021-05-26 01:29:50 PM,-,1622028510236,
2021-05-26 01:29:50 PM,-,1622028510240,
2021-05-26 01:29:50 PM,-,1622028510243,
2021-05-26 01:29:50 PM,-,1622028510246,
2021-05-26 01:29:50 PM,-,1622028510250,
2021-05-26 01:29:50 PM,-,1622028510253,
2021-05-26 01:29:50 PM,-,1622028510256,
2021-05-26 01:29:50 PM,-,1622028510260,
2021-05-26 01:29:50 PM,-,1622028510263,
2021-05-26 01:29:50 PM,-,1622028510266,
2021-05-26 01:29:50 PM,-,1622028510270,
2021-05-26 01:29:50 PM,-,1622028510273,
2021-05-26 01:29:50 PM,-,1622028510276,
2021-05-26 01:29:50 PM,-,1622028510280,
2021-05-26 01:29:50 PM,-,1622028510283,
2021-05-26 01:29:50 PM,-,1622028510286,
2021-05-26 01:29:50 PM,-,1622028510290,
2021-05-26 01:29:50 PM,-,1622028510293,
2021-05-26 01:29:50 PM,-,1622028510296,
2021-05-26 01:29:50 PM,-,1622028510300,
2021-05-26 01:29:50 PM,-,1622028510303,
2021-05-26 01:29:50 PM,-,1622028510306,
2021-05-26 01:29:50 PM,-,1622028510310,
2021-05-26 01:29:50 PM,-,1622028510313,
2021-05-26 01:29:50 PM,-,1622028510316,
2021-05-26 01:29:50 PM,-,1622028510320,
2021-05-26 01:29:50 PM,-,1622028510323,
2021-05-26 01:29:50 PM,-,1622028510326,
2021-05-26 01:29:50 PM,-,1622028510330,
2021-05-26 01:29:50 PM,-,1622028510333,
2021-05-26 01:29:50 PM,-,1622028510336,
2021-05-26 01:29:50 PM,-,1622028510340,
2021-05-26 01:29:50 PM,-,1622028510343,
2021-05-26 01:29:50 PM,-,1622028510346,
2021-05-26 01:29:50 PM,-,1622028510350,
2021-05-26 01:29:50 PM,-,1622028510353,
2021-05-26 01:29:50 PM,-,1622028510356,
2021-05-26 01:29:50 PM,-,1622028510360,
2021-05-26 01:29:50 PM,-,1622028510363,
2021-05-26 01:29:50 PM,-,1622028510366,
2021-05-26 01:29:50 PM,-,1622028510370,
2021-05-26 01:29:50 PM,-,1622028510373,
2021-05-26 01:29:50 PM,-,1622028510376,
2021-05-26 01:29:50 PM,-,1622028510380,
2021-05-26 01:29:50 PM,-,1622028510383,
2021-05-26 01:29:50 PM,-,1622028510386,
2021-05-26 01:29:50 PM,-,1622028510390,
2021-05-26 01:29:50 PM,-,1622028510393,
2021-05-26 01:29:50 PM,-,1622028510396,
2021-05-26 01:29:50 PM,-,1622028510400,
2021-05-26 01:29:50 PM,-,1622028510403,
2021-05-26 01:29:50 PM,-,1622028510406,
2021-05-26 01:29:50 PM,-,1622028510410,
2021-05-26 01:29:50 PM,-,1622028510413,
2021-05-26 01:29:50 PM,-,1622028510416,
2021-05-26 01:29:50 PM,-,1622028510420,
2021-05-26 01:29:50 PM,-,1622028510423,
2021-05-26 01:29:50 PM,-,1622028510426,
2021-05-26 01:29:50 PM,-,1622028510430,
2021-05-26 01:29:50 PM,-,1622028510433,
2021-05-26 01:29:50 PM,-,1622028510436,
2021-05-26 01:29:50 PM,-,1622028510440,
2021-05-26 01:29:50 PM,-,1622028510443,
2021-05-26 01:29:50 PM,-,1622028510446,
2021-05-26 01:29:50 PM,-,1622028510450,
2021-05-26 01:29:50 PM,-,1622028510453,
2021-05-26 01:29:50 PM,-,1622028510456,
2021-05-26 01:29:50 PM,-,1622028510460,
2021-05-26 01:29:50 PM,-,1622028510463,
2021-05-26 01:29:50 PM,-,1622028510466,
2021-05-26 01:29:50 PM,-,1622028510470,
2021-05-26 01:29:50 PM,-,1622028510473,
2021-05-26 01:29:50 PM,-,1622028510476,
2021-05-26 01:29:50 PM,-,1622028510480,
2021-05-26 01:29:50 PM,-,1622028510483,
2021-05-26 01:29:50 PM,-,1622028510486,
2021-05-26 01:29:50 PM,-,1622028510490,
2021-05-26 01:29:50 PM,-,1622028510493,
2021-05-26 01:29:50 PM,-,1622028510496,
2021-05-26 01:29:50 PM,-,1622028510500,
2021-05-26 01:29:50 PM,-,1622028510503,
2021-05-26 01:29:50 PM,-,1622028510506,
2021-05-26 01:29:50 PM,-,1622028510510,
2021-05-26 01:29:50 PM,-,1622028510513,
2021-05-26 01:29:50 PM,-,1622028510516,
2021-05-26 01:29:50 PM,-,1622028510520,
2021-05-26 01:29:50 PM,-,1622028510523,
2021-05-26 01:29:50 PM,-,1622028510526,
2021-05-26 01:29:50 PM,-,1622028510530,
2021-05-26 01:29:50 PM,-,1622028510533,
2021-05-26 01:29:50 PM,-,1622028510536,
2021-05-26 01:29:50 PM,-,1622028510540,
2021-05-26 01:29:50 PM,-,1622028510543,
2021-05-26 01:29:50 PM,-,1622028510546,
2021-05-26 01:29:50 PM,-,1622028510550,
2021-05-26 01:29:50 PM,-,1622028510553,
2021-05-26 01:29:50 PM,-,1622028510556,
2021-05-26 01:29:50 PM,-,1622028510560,
2021-05-26 01:29:50 PM,-,1622028510563,
2021-05-26 01:29:50 PM,-,1622028510566,
2021-05-26 01:29:50 PM,-,1622028510570,
2021-05-26 01:29:50 PM,-,1622028510573,
2021-05-26 01:29:50 PM,-,1622028510576,
2021-05-26 01:29:50 PM,-,1622028510580,
2021-05-26 01:29:50 PM,-,1622028510583,
2021-05-26 01:29:50 PM,-,1622028510586,
2021-05-26 01:29:50 PM,-,1622028510590,
2021-05-26 01:29:50 PM,-,1622028510593,
2021-05-26 01:29:50 PM,-,1622028510596,
2021-05-26 01:29:50 PM,-,1622028510600,
2021-05-26 01:29:50 PM,-,1622028510603,
2021-05-26 01:29:50 PM,-,1622028510606,
2021-05-26 01:29:50 PM,-,1622028510610,
2021-05-26 01:29:50 PM,-,1622028510613,
2021-05-26 01:29:50 PM,-,1622028510616,
2021-05-26 01:29:50 PM,-,1622028510620,
2021-05-26 01:29:50 PM,-,1622028510623,
2021-05-26 01:29:50 PM,-,1622028510626,
2021-05-26 01:29:50 PM,-,1622028510630,
2021-05-26 01:29:50 PM,-,1622028510633,
2021-05-26 01:29:50 PM,-,1622028510636,
2021-05-26 01:29:50 PM,-,1622028510640,
2021-05-26 01:29:50 PM,-,1622028510643,
2021-05-26 01:29:50 PM,-,1622028510646,
2021-05-26 01:29:50 PM,-,1622028510650,
2021-05-26 01:29:50 PM,-,1622028510653,
2021-05-26 01:29:50 PM,-,1622028510656,
2021-05-26 01:29:50 PM,-,1622028510660,
2021-05-26 01:29:50 PM,-,1622028510663,
2021-05-26 01:29:50 PM,-,1622028510666,
2021-05-26 01:29:50 PM,-,1622028510670,
2021-05-26 01:29:50 PM,-,1622028510673,
2021-05-26 01:29:50 PM,-,1622028510676,
2021-05-26 01:29:50 PM,-,1622028510680,
2021-05-26 01:29:50 PM,-,1622028510683,
2021-05-26 01:29:50 PM,-,1622028510686,
2021-05-26 01:29:50 PM,-,1622028510690,
2021-05-26 01:29:50 PM,-,1622028510693,
2021-05-26 01:29:50 PM,-,1622028510696,
2021-05-26 01:29:50 PM,-,1622028510700,
2021-05-26 01:29:50 PM,-,1622028510703,
2021-05-26 01:29:50 PM,-,1622028510706,
2021-05-26 01:29:50 PM,-,1622028510710,
2021-05-26 01:29:50 PM,-,1622028510713,
2021-05-26 01:29:50 PM,-,1622028510716,
2021-05-26 01:29:50 PM,-,1622028510720,
2021-05-26 01:29:50 PM,-,1622028510723,
2021-05-26 01:29:50 PM,-,1622028510726,
2021-05-26 01:29:50 PM,-,1622028510730,
2021-05-26 01:29:50 PM,-,1622028510733,
2021-05-26 01:29:50 PM,-,1622028510736,
2021-05-26 01:29:50 PM,-,1622028510740,
2021-05-26 01:29:50 PM,-,1622028510743,
2021-05-26 01:29:50 PM,-,1622028510746,
2021-05-26 01:29:50 PM,-,1622028510750,
2021-05-26 01:29:50 PM,-,1622028510753,
2021-05-26 01:29:50 PM,-,1622028510756,
2021-05-26 01:29:50 PM,-,1622028510760,
2021-05-26 01:29:50 PM,-,1622028510763,
2021-05-26 01:29:50 PM,-,1622028510766,
2021-05-26 01:29:50 PM,-,1622028510770,
2021-05-26 01:29:50 PM,-,1622028510773,
2021-05-26 01:29:50 PM,-,1622028510776,
2021-05-26 01:29:50 PM,-,1622028510780,
2021-05-26 01:29:50 PM,-,1622028510783,
2021-05-26 01:29:50 PM,-,1622028510786,
2021-05-26 01:29:50 PM,-,1622028510790,
2021-05-26 01:29:50 PM,-,1622028510793,
2021-05-26 01:29:50 PM,-,1622028510796,
2021-05-26 01:29:50 PM,-,1622028510800,
2021-05-26 01:29:50 PM,-,1622028510803,
2021-05-26 01:29:50 PM,-,1622028510806,
2021-05-26 01:29:50 PM,-,1622028510810,
2021-05-26 01:29:50 PM,-,1622028510813,
2021-05-26 01:29:50 PM,-,1622028510816,
2021-05-26 01:29:50 PM,-,1622028510820,
2021-05-26 01:29:50 PM,-,1622028510823,
2021-05-26 01:29:50 PM,-,1622028510826,
2021-05-26 01:29:50 PM,-,1622028510830,
2021-05-26 01:29:50 PM,-,1622028510833,
2021-05-26 01:29:50 PM,-,1622028510836,
2021-05-26 01:29:50 PM,-,1622028510840,
2021-05-26 01:29:50 PM,-,1622028510843,
2021-05-26 01:29:50 PM,-,1622028510846,
2021-05-26 01:29:50 PM,-,1622028510850,
2021-05-26 01:29:50 PM,-,1622028510853,
2021-05-26 01:29:50 PM,-,1622028510856,
2021-05-26 01:29:50 PM,-,1622028510860,
2021-05-26 01:29:50 PM,-,1622028510863,
2021-05-26 01:29:50 PM,-,1622028510866,
2021-05-26 01:29:50 PM,-,1622028510870,
2021-05-26 01:29:50 PM,-,1622028510873,
2021-05-26 01:29:50 PM,-,1622028510876,
2021-05-26 01:29:50 PM,-,1622028510880,
2021-05-26 01:29:50 PM,-,1622028510883,
2021-05-26 01:29:50 PM,-,1622028510886,
2021-05-26 01:29:50 PM,-,1622028510890,
2021-05-26 01:29:50 PM,-,1622028510893,
2021-05-26 01:29:50 PM,-,1622028510896,
2021-05-26 01:29:50 PM,-,1622028510900,
2021-05-26 01:29:50 PM,-,1622028510903,
2021-05-26 01:29:50 PM,-,1622028510906,
2021-05-26 01:29:50 PM,-,1622028510910,
2021-05-26 01:29:50 PM,-,1622028510913,
2021-05-26 01:29:50 PM,-,1622028510916,
2021-05-26 01:29:50 PM,-,1622028510920,
2021-05-26 01:29:50 PM,-,1622028510923,
2021-05-26 01:29:50 PM,-,1622028510926,
2021-05-26 01:29:50 PM,-,1622028510930,
2021-05-26 01:29:50 PM,-,1622028510933,
2021-05-26 01:29:50 PM,-,1622028510936,
2021-05-26 01:29:50 PM,-,1622028510940,
2021-05-26 01:29:50 PM,-,1622028510943,
2021-05-26 01:29:50 PM,-,1622028510946,
2021-05-26 01:29:50 PM,-,1622028510950,
2021-05-26 01:29:50 PM,-,1622028510953,
2021-05-26 01:29:50 PM,-,1622028510956,
2021-05-26 01:29:50 PM,-,1622028510960,
2021-05-26 01:29:50 PM,-,1622028510963,
2021-05-26 01:29:50 PM,-,1622028510966,
2021-05-26 01:29:50 PM,-,1622028510970,
2021-05-26 01:29:50 PM,-,1622028510973,
2021-05-26 01:29:50 PM,-,1622028510976,
2021-05-26 01:29:50 PM,-,1622028510980,
2021-05-26 01:29:50 PM,-,1622028510983,
2021-05-26 01:29:50 PM,-,1622028510986,
2021-05-26 01:29:50 PM,-,1622028510990,
2021-05-26 01:29:50 PM,-,1622028510993,
2021-05-26 01:29:50 PM,-,1622028510996,
2021-05-26 01:29:51 PM,-,1622028511000,
2021-05-26 01:29:51 PM,-,1622028511003,
2021-05-26 01:29:51 PM,-,1622028511006,
2021-05-26 01:29:51 PM,-,1622028511010,
2021-05-26 01:29:51 PM,-,1622028511013,
2021-05-26 01:29:51 PM,-,1622028511016,
2021-05-26 01:29:51 PM,-,1622028511020,
2021-05-26 01:29:51 PM,-,1622028511023,
2021-05-26 01:29:51 PM,-,1622028511026,
2021-05-26 01:29:51 PM,-,1622028511030,
2021-05-26 01:29:51 PM,-,1622028511033,
2021-05-26 01:29:51 PM,-,1622028511036,
2021-05-26 01:29:51 PM,-,1622028511040,
2021-05-26 01:29:51 PM,-,1622028511043,
2021-05-26 01:29:51 PM,-,1622028511046,
2021-05-26 01:29:51 PM,-,1622028511050,
2021-05-26 01:29:51 PM,-,1622028511053,
2021-05-26 01:29:51 PM,-,1622028511056,
2021-05-26 01:29:51 PM,-,1622028511060,
2021-05-26 01:29:51 PM,-,1622028511063,
2021-05-26 01:29:51 PM,-,1622028511066,
2021-05-26 01:29:51 PM,-,1622028511070,
2021-05-26 01:29:51 PM,-,1622028511073,
2021-05-26 01:29:51 PM,-,1622028511076,
2021-05-26 01:29:51 PM,-,1622028511080,
2021-05-26 01:29:51 PM,-,1622028511083,
2021-05-26 01:29:51 PM,-,1622028511086,
2021-05-26 01:29:51 PM,-,1622028511090,
2021-05-26 01:29:51 PM,-,1622028511093,
2021-05-26 01:29:51 PM,-,1622028511096,
2021-05-26 01:29:51 PM,-,1622028511100,
2021-05-26 01:29:51 PM,-,1622028511103,
2021-05-26 01:29:51 PM,-,1622028511106,
2021-05-26 01:29:51 PM,-,1622028511110,
2021-05-26 01:29:51 PM,-,1622028511113,
2021-05-26 01:29:51 PM,-,1622028511116,
2021-05-26 01:29:51 PM,-,1622028511120,
2021-05-26 01:29:51 PM,-,1622028511123,
2021-05-26 01:29:51 PM,-,1622028511126,
2021-05-26 01:29:51 PM,-,1622028511130,
2021-05-26 01:29:51 PM,-,1622028511133,
2021-05-26 01:29:51 PM,-,1622028511136,
2021-05-26 01:29:51 PM,-,1622028511140,
2021-05-26 01:29:51 PM,-,1622028511143,
2021-05-26 01:29:51 PM,-,1622028511146,
2021-05-26 01:29:51 PM,-,1622028511150,
2021-05-26 01:29:51 PM,-,1622028511153,
2021-05-26 01:29:51 PM,-,1622028511156,
2021-05-26 01:29:51 PM,-,1622028511160,
2021-05-26 01:29:51 PM,-,1622028511163,
2021-05-26 01:29:51 PM,-,1622028511166,
2021-05-26 01:29:51 PM,-,1622028511170,
2021-05-26 01:29:51 PM,-,1622028511173,
2021-05-26 01:29:51 PM,-,1622028511176,
2021-05-26 01:29:51 PM,-,1622028511180,
2021-05-26 01:29:51 PM,-,1622028511183,
2021-05-26 01:29:51 PM,-,1622028511186,
2021-05-26 01:29:51 PM,-,1622028511190,
2021-05-26 01:29:51 PM,-,1622028511193,
2021-05-26 01:29:51 PM,-,1622028511196,
2021-05-26 01:29:51 PM,-,1622028511200,
2021-05-26 01:29:51 PM,-,1622028511203,
2021-05-26 01:29:51 PM,-,1622028511206,
2021-05-26 01:29:51 PM,-,1622028511210,
2021-05-26 01:29:51 PM,-,1622028511213,
2021-05-26 01:29:51 PM,-,1622028511216,
2021-05-26 01:29:51 PM,-,1622028511220,
2021-05-26 01:29:51 PM,-,1622028511223,
2021-05-26 01:29:51 PM,-,1622028511226,
2021-05-26 01:29:51 PM,-,1622028511230,
2021-05-26 01:29:51 PM,-,1622028511233,
2021-05-26 01:29:51 PM,-,1622028511236,
2021-05-26 01:29:51 PM,-,1622028511240,
2021-05-26 01:29:51 PM,-,1622028511243,
2021-05-26 01:29:51 PM,-,1622028511246,
2021-05-26 01:29:51 PM,-,1622028511250,
2021-05-26 01:29:51 PM,-,1622028511253,
2021-05-26 01:29:51 PM,-,1622028511256,
2021-05-26 01:29:51 PM,-,1622028511260,
2021-05-26 01:29:51 PM,-,1622028511263,
2021-05-26 01:29:51 PM,-,1622028511266,
2021-05-26 01:29:51 PM,-,1622028511270,
2021-05-26 01:29:51 PM,-,1622028511273,
2021-05-26 01:29:51 PM,-,1622028511276,
2021-05-26 01:29:51 PM,-,1622028511280,
2021-05-26 01:29:51 PM,-,1622028511283,
2021-05-26 01:29:51 PM,-,1622028511286,
2021-05-26 01:29:51 PM,-,1622028511290,
2021-05-26 01:29:51 PM,-,1622028511293,
2021-05-26 01:29:51 PM,-,1622028511296,
2021-05-26 01:29:51 PM,-,1622028511300,
2021-05-26 01:29:51 PM,-,1622028511303,
2021-05-26 01:29:51 PM,-,1622028511306,
2021-05-26 01:29:51 PM,-,1622028511310,
2021-05-26 01:29:51 PM,-,1622028511313,
2021-05-26 01:29:51 PM,-,1622028511316,
2021-05-26 01:29:51 PM,-,1622028511320,
2021-05-26 01:29:51 PM,-,1622028511323,
2021-05-26 01:29:51 PM,-,1622028511326,
2021-05-26 01:29:51 PM,-,1622028511330,
2021-05-26 01:29:51 PM,-,1622028511333,
2021-05-26 01:29:51 PM,-,1622028511336,
2021-05-26 01:29:51 PM,-,1622028511340,
2021-05-26 01:29:51 PM,-,1622028511343,
2021-05-26 01:29:51 PM,-,1622028511346,
2021-05-26 01:29:51 PM,-,1622028511350,
2021-05-26 01:29:51 PM,-,1622028511353,
2021-05-26 01:29:51 PM,-,1622028511356,
2021-05-26 01:29:51 PM,-,1622028511360,
2021-05-26 01:29:51 PM,-,1622028511363,
2021-05-26 01:29:51 PM,-,1622028511366,
2021-05-26 01:29:51 PM,-,1622028511370,
2021-05-26 01:29:51 PM,-,1622028511373,
2021-05-26 01:29:51 PM,-,1622028511376,
2021-05-26 01:29:51 PM,-,1622028511380,
2021-05-26 01:29:51 PM,-,1622028511383,
2021-05-26 01:29:51 PM,-,1622028511386,
2021-05-26 01:29:51 PM,-,1622028511390,
2021-05-26 01:29:51 PM,-,1622028511393,
2021-05-26 01:29:51 PM,-,1622028511396,
2021-05-26 01:29:51 PM,-,1622028511400,
2021-05-26 01:29:51 PM,-,1622028511403,
2021-05-26 01:29:51 PM,-,1622028511406,
2021-05-26 01:29:51 PM,-,1622028511410,
2021-05-26 01:29:51 PM,-,1622028511413,
2021-05-26 01:29:51 PM,-,1622028511416,
2021-05-26 01:29:51 PM,-,1622028511420,
2021-05-26 01:29:51 PM,-,1622028511423,
2021-05-26 01:29:51 PM,-,1622028511426,
2021-05-26 01:29:51 PM,-,1622028511430,
2021-05-26 01:29:51 PM,-,1622028511433,
2021-05-26 01:29:51 PM,-,1622028511436,
2021-05-26 01:29:51 PM,-,1622028511440,
2021-05-26 01:29:51 PM,-,1622028511443,
2021-05-26 01:29:51 PM,-,1622028511446,
2021-05-26 01:29:51 PM,-,1622028511450,
2021-05-26 01:29:51 PM,-,1622028511453,
2021-05-26 01:29:51 PM,-,1622028511456,
2021-05-26 01:29:51 PM,-,1622028511460,
2021-05-26 01:29:51 PM,-,1622028511463,
2021-05-26 01:29:51 PM,-,1622028511466,
2021-05-26 01:29:51 PM,-,1622028511470,
2021-05-26 01:29:51 PM,-,1622028511473,
2021-05-26 01:29:51 PM,-,1622028511476,
2021-05-26 01:29:51 PM,-,1622028511480,
2021-05-26 01:29:51 PM,-,1622028511483,
2021-05-26 01:29:51 PM,-,1622028511486,
2021-05-26 01:29:51 PM,-,1622028511490,
2021-05-26 01:29:51 PM,-,1622028511493,
2021-05-26 01:29:51 PM,-,1622028511496,
2021-05-26 01:29:51 PM,-,1622028511500,
2021-05-26 01:29:51 PM,-,1622028511503,
2021-05-26 01:29:51 PM,-,1622028511506,
2021-05-26 01:29:51 PM,-,1622028511510,
2021-05-26 01:29:51 PM,-,1622028511513,
2021-05-26 01:29:51 PM,-,1622028511516,
2021-05-26 01:29:51 PM,-,1622028511520,
2021-05-26 01:29:51 PM,-,1622028511523,
2021-05-26 01:29:51 PM,-,1622028511526,
2021-05-26 01:29:51 PM,-,1622028511530,
2021-05-26 01:29:51 PM,-,1622028511533,
2021-05-26 01:29:51 PM,-,1622028511536,
2021-05-26 01:29:51 PM,-,1622028511540,
2021-05-26 01:29:51 PM,-,1622028511543,
2021-05-26 01:29:51 PM,-,1622028511546,
2021-05-26 01:29:51 PM,-,1622028511550,
2021-05-26 01:29:51 PM,-,1622028511553,
2021-05-26 01:29:51 PM,-,1622028511556,
2021-05-26 01:29:51 PM,-,1622028511560,
2021-05-26 01:29:51 PM,-,1622028511563,
2021-05-26 01:29:51 PM,-,1622028511566,
2021-05-26 01:29:51 PM,-,1622028511570,
2021-05-26 01:29:51 PM,-,1622028511573,
2021-05-26 01:29:51 PM,-,1622028511576,
2021-05-26 01:29:51 PM,-,1622028511580,
2021-05-26 01:29:51 PM,-,1622028511583,
2021-05-26 01:29:51 PM,-,1622028511586,
2021-05-26 01:29:51 PM,-,1622028511590,
2021-05-26 01:29:51 PM,-,1622028511593,
2021-05-26 01:29:51 PM,-,1622028511596,
2021-05-26 01:29:51 PM,-,1622028511600,
2021-05-26 01:29:51 PM,-,1622028511603,
2021-05-26 01:29:51 PM,-,1622028511606,
2021-05-26 01:29:51 PM,-,1622028511610,
2021-05-26 01:29:51 PM,-,1622028511613,
2021-05-26 01:29:51 PM,-,1622028511616,
2021-05-26 01:29:51 PM,-,1622028511620,
2021-05-26 01:29:51 PM,-,1622028511623,
2021-05-26 01:29:51 PM,-,1622028511626,
2021-05-26 01:29:51 PM,-,1622028511630,
2021-05-26 01:29:51 PM,-,1622028511633,
2021-05-26 01:29:51 PM,-,1622028511636,
2021-05-26 01:29:51 PM,-,1622028511640,
2021-05-26 01:29:51 PM,-,1622028511643,
2021-05-26 01:29:51 PM,-,1622028511646,
2021-05-26 01:29:51 PM,-,1622028511650,
2021-05-26 01:29:51 PM,-,1622028511653,
2021-05-26 01:29:51 PM,-,1622028511656,
2021-05-26 01:29:51 PM,-,1622028511660,
2021-05-26 01:29:51 PM,-,1622028511663,
2021-05-26 01:29:51 PM,-,1622028511666,
2021-05-26 01:29:51 PM,-,1622028511670,
2021-05-26 01:29:51 PM,-,1622028511673,
2021-05-26 01:29:51 PM,-,1622028511676,
2021-05-26 01:29:51 PM,-,1622028511680,
2021-05-26 01:29:51 PM,-,1622028511683,
2021-05-26 01:29:51 PM,-,1622028511686,
2021-05-26 01:29:51 PM,-,1622028511690,
2021-05-26 01:29:51 PM,-,1622028511693,
2021-05-26 01:29:51 PM,-,1622028511696,
2021-05-26 01:29:51 PM,-,1622028511700,
2021-05-26 01:29:51 PM,-,1622028511703,
2021-05-26 01:29:51 PM,-,1622028511706,
2021-05-26 01:29:51 PM,-,1622028511710,
2021-05-26 01:29:51 PM,-,1622028511713,
2021-05-26 01:29:51 PM,-,1622028511716,
2021-05-26 01:29:51 PM,-,1622028511720,
2021-05-26 01:29:51 PM,-,1622028511723,
2021-05-26 01:29:51 PM,-,1622028511726,
2021-05-26 01:29:51 PM,-,1622028511730,
2021-05-26 01:29:51 PM,-,1622028511733,
2021-05-26 01:29:51 PM,-,1622028511736,
2021-05-26 01:29:51 PM,-,1622028511740,
2021-05-26 01:29:51 PM,-,1622028511743,
2021-05-26 01:29:51 PM,-,1622028511746,
2021-05-26 01:29:51 PM,-,1622028511750,
2021-05-26 01:29:51 PM,-,1622028511753,
2021-05-26 01:29:51 PM,-,1622028511756,
2021-05-26 01:29:51 PM,-,1622028511760,
2021-05-26 01:29:51 PM,-,1622028511763,
2021-05-26 01:29:51 PM,-,1622028511766,
2021-05-26 01:29:51 PM,-,1622028511770,
2021-05-26 01:29:51 PM,-,1622028511773,
2021-05-26 01:29:51 PM,-,1622028511776,
2021-05-26 01:29:51 PM,-,1622028511780,
2021-05-26 01:29:51 PM,-,1622028511783,
2021-05-26 01:29:51 PM,-,1622028511786,
2021-05-26 01:29:51 PM,-,1622028511790,
2021-05-26 01:29:51 PM,-,1622028511793,
2021-05-26 01:29:51 PM,-,1622028511796,
2021-05-26 01:29:51 PM,-,1622028511800,
2021-05-26 01:29:51 PM,-,1622028511803,
2021-05-26 01:29:51 PM,-,1622028511806,
2021-05-26 01:29:51 PM,-,1622028511810,
2021-05-26 01:29:51 PM,-,1622028511813,
2021-05-26 01:29:51 PM,-,1622028511816,
2021-05-26 01:29:51 PM,-,1622028511820,
2021-05-26 01:29:51 PM,-,1622028511823,
2021-05-26 01:29:51 PM,-,1622028511826,
2021-05-26 01:29:51 PM,-,1622028511830,
2021-05-26 01:29:51 PM,-,1622028511833,
2021-05-26 01:29:51 PM,-,1622028511836,
2021-05-26 01:29:51 PM,-,1622028511840,
2021-05-26 01:29:51 PM,-,1622028511843,
2021-05-26 01:29:51 PM,-,1622028511846,
2021-05-26 01:29:51 PM,-,1622028511850,
2021-05-26 01:29:51 PM,-,1622028511853,
2021-05-26 01:29:51 PM,-,1622028511856,
2021-05-26 01:29:51 PM,-,1622028511860,
2021-05-26 01:29:51 PM,-,1622028511863,
2021-05-26 01:29:51 PM,-,1622028511866,
2021-05-26 01:29:51 PM,-,1622028511870,
2021-05-26 01:29:51 PM,-,1622028511873,
2021-05-26 01:29:51 PM,-,1622028511876,
2021-05-26 01:29:51 PM,-,1622028511880,
2021-05-26 01:29:51 PM,-,1622028511883,
2021-05-26 01:29:51 PM,-,1622028511886,
2021-05-26 01:29:51 PM,-,1622028511890,
2021-05-26 01:29:51 PM,-,1622028511893,
2021-05-26 01:29:51 PM,-,1622028511896,
2021-05-26 01:29:51 PM,-,1622028511900,
2021-05-26 01:29:51 PM,-,1622028511903,
2021-05-26 01:29:51 PM,-,1622028511906,
2021-05-26 01:29:51 PM,-,1622028511910,
2021-05-26 01:29:51 PM,-,1622028511913,
2021-05-26 01:29:51 PM,-,1622028511916,
2021-05-26 01:29:51 PM,-,1622028511920,
2021-05-26 01:29:51 PM,-,1622028511923,
2021-05-26 01:29:51 PM,-,1622028511926,
2021-05-26 01:29:51 PM,-,1622028511930,
2021-05-26 01:29:51 PM,-,1622028511933,
2021-05-26 01:29:51 PM,-,1622028511936,
2021-05-26 01:29:51 PM,-,1622028511940,
2021-05-26 01:29:51 PM,-,1622028511943,
2021-05-26 01:29:51 PM,-,1622028511946,
2021-05-26 01:29:51 PM,-,1622028511950,
2021-05-26 01:29:51 PM,-,1622028511953,
2021-05-26 01:29:51 PM,-,1622028511956,
2021-05-26 01:29:51 PM,-,1622028511960,
2021-05-26 01:29:51 PM,-,1622028511963,
2021-05-26 01:29:51 PM,-,1622028511966,
2021-05-26 01:29:51 PM,-,1622028511970,
2021-05-26 01:29:51 PM,-,1622028511973,
2021-05-26 01:29:51 PM,-,1622028511976,
2021-05-26 01:29:51 PM,-,1622028511980,
2021-05-26 01:29:51 PM,-,1622028511983,
2021-05-26 01:29:51 PM,-,1622028511986,
2021-05-26 01:29:51 PM,-,1622028511990,
2021-05-26 01:29:51 PM,-,1622028511993,
2021-05-26 01:29:51 PM,-,1622028511996,
