2021-07-14 11:54:28 AM,0.020000,1626256357000,
2021-07-14 11:54:28 AM,0.000000,1626256357003,
2021-07-14 11:54:28 AM,-0.010000,1626256357006,
2021-07-14 11:54:28 AM,-0.020000,1626256357010,
2021-07-14 11:54:28 AM,0.010000,1626256357013,
2021-07-14 11:54:28 AM,0.040000,1626256357016,
2021-07-14 11:54:28 AM,0.090000,1626256357020,
2021-07-14 11:54:28 AM,0.130000,1626256357023,
2021-07-14 11:54:28 AM,0.160000,1626256357026,
2021-07-14 11:54:28 AM,0.160000,1626256357030,
2021-07-14 11:54:28 AM,0.160000,1626256357033,
2021-07-14 11:54:28 AM,0.170000,1626256357036,
2021-07-14 11:54:28 AM,0.150000,1626256357040,
2021-07-14 11:54:28 AM,0.140000,1626256357043,
2021-07-14 11:54:28 AM,0.150000,1626256357046,
2021-07-14 11:54:28 AM,0.150000,1626256357050,
2021-07-14 11:54:28 AM,0.170000,1626256357053,
2021-07-14 11:54:28 AM,0.170000,1626256357056,
2021-07-14 11:54:28 AM,0.160000,1626256357060,
2021-07-14 11:54:28 AM,0.140000,1626256357063,
2021-07-14 11:54:28 AM,0.150000,1626256357066,
2021-07-14 11:54:28 AM,0.140000,1626256357070,
2021-07-14 11:54:28 AM,0.120000,1626256357073,
2021-07-14 11:54:28 AM,0.120000,1626256357076,
2021-07-14 11:54:28 AM,0.120000,1626256357080,
2021-07-14 11:54:28 AM,0.120000,1626256357083,
2021-07-14 11:54:28 AM,0.140000,1626256357086,
2021-07-14 11:54:28 AM,0.160000,1626256357090,
2021-07-14 11:54:28 AM,0.170000,1626256357093,
2021-07-14 11:54:28 AM,0.180000,1626256357096,
2021-07-14 11:54:28 AM,0.180000,1626256357100,
2021-07-14 11:54:28 AM,0.170000,1626256357103,
2021-07-14 11:54:28 AM,0.130000,1626256357106,
2021-07-14 11:54:28 AM,0.100000,1626256357110,
2021-07-14 11:54:28 AM,0.070000,1626256357113,
2021-07-14 11:54:28 AM,0.040000,1626256357116,
2021-07-14 11:54:28 AM,0.030000,1626256357120,
2021-07-14 11:54:28 AM,0.040000,1626256357123,
2021-07-14 11:54:28 AM,0.050000,1626256357126,
2021-07-14 11:54:28 AM,0.080000,1626256357130,
2021-07-14 11:54:28 AM,0.080000,1626256357133,
2021-07-14 11:54:28 AM,0.090000,1626256357136,
2021-07-14 11:54:28 AM,0.090000,1626256357140,
2021-07-14 11:54:28 AM,0.090000,1626256357143,
2021-07-14 11:54:28 AM,0.090000,1626256357146,
2021-07-14 11:54:28 AM,0.090000,1626256357150,
2021-07-14 11:54:28 AM,0.090000,1626256357153,
2021-07-14 11:54:28 AM,0.110000,1626256357156,
2021-07-14 11:54:28 AM,0.140000,1626256357160,
2021-07-14 11:54:28 AM,0.140000,1626256357163,
2021-07-14 11:54:28 AM,0.150000,1626256357166,
2021-07-14 11:54:28 AM,0.140000,1626256357170,
2021-07-14 11:54:28 AM,0.130000,1626256357173,
2021-07-14 11:54:28 AM,0.110000,1626256357176,
2021-07-14 11:54:28 AM,0.100000,1626256357180,
2021-07-14 11:54:28 AM,0.080000,1626256357183,
2021-07-14 11:54:28 AM,0.050000,1626256357186,
2021-07-14 11:54:28 AM,0.010000,1626256357190,
2021-07-14 11:54:28 AM,-0.030000,1626256357193,
2021-07-14 11:54:28 AM,-0.080000,1626256357196,
2021-07-14 11:54:28 AM,-0.110000,1626256357200,
2021-07-14 11:54:28 AM,-0.130000,1626256357203,
2021-07-14 11:54:28 AM,-0.130000,1626256357206,
2021-07-14 11:54:28 AM,-0.140000,1626256357210,
2021-07-14 11:54:28 AM,-0.170000,1626256357213,
2021-07-14 11:54:28 AM,-0.230000,1626256357216,
2021-07-14 11:54:28 AM,-0.290000,1626256357220,
2021-07-14 11:54:28 AM,-0.390000,1626256357223,
2021-07-14 11:54:28 AM,-0.480000,1626256357226,
2021-07-14 11:54:28 AM,-0.590000,1626256357230,
2021-07-14 11:54:28 AM,-0.670000,1626256357233,
2021-07-14 11:54:28 AM,-0.740000,1626256357236,
2021-07-14 11:54:28 AM,-0.780000,1626256357240,
2021-07-14 11:54:28 AM,-0.790000,1626256357243,
2021-07-14 11:54:28 AM,-0.770000,1626256357246,
2021-07-14 11:54:28 AM,-0.740000,1626256357250,
2021-07-14 11:54:28 AM,-0.700000,1626256357253,
2021-07-14 11:54:28 AM,-0.660000,1626256357256,
2021-07-14 11:54:28 AM,-0.610000,1626256357260,
2021-07-14 11:54:28 AM,-0.540000,1626256357263,
2021-07-14 11:54:28 AM,-0.440000,1626256357266,
2021-07-14 11:54:28 AM,-0.330000,1626256357270,
2021-07-14 11:54:28 AM,-0.210000,1626256357273,
2021-07-14 11:54:28 AM,-0.090000,1626256357276,
2021-07-14 11:54:28 AM,0.000000,1626256357280,
2021-07-14 11:54:28 AM,0.060000,1626256357283,
2021-07-14 11:54:28 AM,0.110000,1626256357286,
2021-07-14 11:54:28 AM,0.150000,1626256357290,
2021-07-14 11:54:28 AM,0.160000,1626256357293,
2021-07-14 11:54:28 AM,0.170000,1626256357296,
2021-07-14 11:54:28 AM,0.170000,1626256357300,
2021-07-14 11:54:28 AM,0.180000,1626256357303,
2021-07-14 11:54:28 AM,0.200000,1626256357306,
2021-07-14 11:54:28 AM,0.230000,1626256357310,
2021-07-14 11:54:28 AM,0.240000,1626256357313,
2021-07-14 11:54:28 AM,0.240000,1626256357316,
2021-07-14 11:54:28 AM,0.230000,1626256357320,
2021-07-14 11:54:28 AM,0.220000,1626256357323,
2021-07-14 11:54:28 AM,0.220000,1626256357326,
2021-07-14 11:54:28 AM,0.230000,1626256357330,
2021-07-14 11:54:28 AM,0.220000,1626256357333,
2021-07-14 11:54:28 AM,0.210000,1626256357336,
2021-07-14 11:54:28 AM,0.190000,1626256357340,
2021-07-14 11:54:28 AM,0.170000,1626256357343,
2021-07-14 11:54:28 AM,0.140000,1626256357346,
2021-07-14 11:54:28 AM,0.120000,1626256357350,
2021-07-14 11:54:28 AM,0.090000,1626256357353,
2021-07-14 11:54:28 AM,0.110000,1626256357356,
2021-07-14 11:54:28 AM,0.210000,1626256357360,
2021-07-14 11:54:28 AM,0.490000,1626256357363,
2021-07-14 11:54:28 AM,1.020000,1626256357366,
2021-07-14 11:54:28 AM,1.720000,1626256357370,
2021-07-14 11:54:28 AM,2.490000,1626256357373,
2021-07-14 11:54:28 AM,3.160000,1626256357376,
2021-07-14 11:54:28 AM,3.580000,1626256357380,
2021-07-14 11:54:28 AM,3.580000,1626256357383,
2021-07-14 11:54:28 AM,2.870000,1626256357386,
2021-07-14 11:54:28 AM,1.100000,1626256357390,
2021-07-14 11:54:28 AM,-2.000000,1626256357393,
2021-07-14 11:54:28 AM,-6.170000,1626256357396,
2021-07-14 11:54:28 AM,-10.500000,1626256357400,
2021-07-14 11:54:28 AM,-13.700000,1626256357403,
2021-07-14 11:54:28 AM,-14.720000,1626256357406,
2021-07-14 11:54:28 AM,-13.400000,1626256357410,
2021-07-14 11:54:28 AM,-10.320000,1626256357413,
2021-07-14 11:54:28 AM,-6.490000,1626256357416,
2021-07-14 11:54:28 AM,-2.840000,1626256357420,
2021-07-14 11:54:28 AM,0.120000,1626256357423,
2021-07-14 11:54:28 AM,2.150000,1626256357426,
2021-07-14 11:54:28 AM,3.320000,1626256357430,
2021-07-14 11:54:28 AM,3.760000,1626256357433,
2021-07-14 11:54:28 AM,3.660000,1626256357436,
2021-07-14 11:54:28 AM,3.210000,1626256357440,
2021-07-14 11:54:28 AM,2.610000,1626256357443,
2021-07-14 11:54:28 AM,1.990000,1626256357446,
2021-07-14 11:54:28 AM,1.450000,1626256357450,
2021-07-14 11:54:28 AM,1.020000,1626256357453,
2021-07-14 11:54:28 AM,0.720000,1626256357456,
2021-07-14 11:54:28 AM,0.510000,1626256357460,
2021-07-14 11:54:28 AM,0.370000,1626256357463,
2021-07-14 11:54:28 AM,0.290000,1626256357466,
2021-07-14 11:54:28 AM,0.250000,1626256357470,
2021-07-14 11:54:28 AM,0.230000,1626256357473,
2021-07-14 11:54:28 AM,0.220000,1626256357476,
2021-07-14 11:54:28 AM,0.200000,1626256357480,
2021-07-14 11:54:28 AM,0.170000,1626256357483,
2021-07-14 11:54:28 AM,0.140000,1626256357486,
2021-07-14 11:54:28 AM,0.130000,1626256357490,
2021-07-14 11:54:28 AM,0.130000,1626256357493,
2021-07-14 11:54:28 AM,0.130000,1626256357496,
2021-07-14 11:54:28 AM,0.150000,1626256357500,
2021-07-14 11:54:28 AM,0.160000,1626256357503,
2021-07-14 11:54:28 AM,0.140000,1626256357506,
2021-07-14 11:54:28 AM,0.110000,1626256357510,
2021-07-14 11:54:28 AM,0.090000,1626256357513,
2021-07-14 11:54:28 AM,0.060000,1626256357516,
2021-07-14 11:54:28 AM,0.030000,1626256357520,
2021-07-14 11:54:28 AM,0.010000,1626256357523,
2021-07-14 11:54:28 AM,-0.010000,1626256357526,
2021-07-14 11:54:28 AM,-0.020000,1626256357530,
2021-07-14 11:54:28 AM,-0.020000,1626256357533,
2021-07-14 11:54:28 AM,-0.010000,1626256357536,
2021-07-14 11:54:28 AM,0.000000,1626256357540,
2021-07-14 11:54:28 AM,-0.010000,1626256357543,
2021-07-14 11:54:28 AM,-0.020000,1626256357546,
2021-07-14 11:54:28 AM,-0.020000,1626256357550,
2021-07-14 11:54:28 AM,-0.020000,1626256357553,
2021-07-14 11:54:28 AM,-0.030000,1626256357556,
2021-07-14 11:54:28 AM,-0.050000,1626256357560,
2021-07-14 11:54:28 AM,-0.070000,1626256357563,
2021-07-14 11:54:28 AM,-0.130000,1626256357566,
2021-07-14 11:54:28 AM,-0.180000,1626256357570,
2021-07-14 11:54:28 AM,-0.250000,1626256357573,
2021-07-14 11:54:28 AM,-0.290000,1626256357576,
2021-07-14 11:54:28 AM,-0.320000,1626256357580,
2021-07-14 11:54:28 AM,-0.340000,1626256357583,
2021-07-14 11:54:28 AM,-0.330000,1626256357586,
2021-07-14 11:54:28 AM,-0.330000,1626256357590,
2021-07-14 11:54:28 AM,-0.350000,1626256357593,
2021-07-14 11:54:28 AM,-0.360000,1626256357596,
2021-07-14 11:54:28 AM,-0.380000,1626256357600,
2021-07-14 11:54:28 AM,-0.400000,1626256357603,
2021-07-14 11:54:28 AM,-0.410000,1626256357606,
2021-07-14 11:54:28 AM,-0.420000,1626256357610,
2021-07-14 11:54:28 AM,-0.420000,1626256357613,
2021-07-14 11:54:28 AM,-0.430000,1626256357616,
2021-07-14 11:54:28 AM,-0.420000,1626256357620,
2021-07-14 11:54:28 AM,-0.400000,1626256357623,
2021-07-14 11:54:28 AM,-0.360000,1626256357626,
2021-07-14 11:54:28 AM,-0.320000,1626256357630,
2021-07-14 11:54:28 AM,-0.310000,1626256357633,
2021-07-14 11:54:28 AM,-0.300000,1626256357636,
2021-07-14 11:54:28 AM,-0.320000,1626256357640,
2021-07-14 11:54:28 AM,-0.360000,1626256357643,
2021-07-14 11:54:28 AM,-0.410000,1626256357646,
2021-07-14 11:54:28 AM,-0.450000,1626256357650,
2021-07-14 11:54:28 AM,-0.510000,1626256357653,
2021-07-14 11:54:28 AM,-0.580000,1626256357656,
2021-07-14 11:54:28 AM,-0.650000,1626256357660,
2021-07-14 11:54:28 AM,-0.720000,1626256357663,
2021-07-14 11:54:28 AM,-0.780000,1626256357666,
2021-07-14 11:54:28 AM,-0.850000,1626256357670,
2021-07-14 11:54:28 AM,-0.940000,1626256357673,
2021-07-14 11:54:28 AM,-1.040000,1626256357676,
2021-07-14 11:54:28 AM,-1.150000,1626256357680,
2021-07-14 11:54:28 AM,-1.270000,1626256357683,
2021-07-14 11:54:28 AM,-1.340000,1626256357686,
2021-07-14 11:54:28 AM,-1.380000,1626256357690,
2021-07-14 11:54:28 AM,-1.400000,1626256357693,
2021-07-14 11:54:28 AM,-1.380000,1626256357696,
2021-07-14 11:54:28 AM,-1.360000,1626256357700,
2021-07-14 11:54:28 AM,-1.340000,1626256357703,
2021-07-14 11:54:28 AM,-1.300000,1626256357706,
2021-07-14 11:54:28 AM,-1.230000,1626256357710,
2021-07-14 11:54:28 AM,-1.170000,1626256357713,
2021-07-14 11:54:28 AM,-1.080000,1626256357716,
2021-07-14 11:54:28 AM,-1.000000,1626256357720,
2021-07-14 11:54:28 AM,-0.920000,1626256357723,
2021-07-14 11:54:28 AM,-0.820000,1626256357726,
2021-07-14 11:54:28 AM,-0.750000,1626256357730,
2021-07-14 11:54:28 AM,-0.660000,1626256357733,
2021-07-14 11:54:28 AM,-0.560000,1626256357736,
2021-07-14 11:54:28 AM,-0.470000,1626256357740,
2021-07-14 11:54:28 AM,-0.380000,1626256357743,
2021-07-14 11:54:28 AM,-0.310000,1626256357746,
2021-07-14 11:54:28 AM,-0.260000,1626256357750,
2021-07-14 11:54:28 AM,-0.220000,1626256357753,
2021-07-14 11:54:28 AM,-0.190000,1626256357756,
2021-07-14 11:54:28 AM,-0.160000,1626256357760,
2021-07-14 11:54:28 AM,-0.110000,1626256357763,
2021-07-14 11:54:28 AM,-0.080000,1626256357766,
2021-07-14 11:54:28 AM,-0.060000,1626256357770,
2021-07-14 11:54:28 AM,-0.030000,1626256357773,
2021-07-14 11:54:28 AM,0.000000,1626256357776,
2021-07-14 11:54:28 AM,0.030000,1626256357780,
2021-07-14 11:54:28 AM,0.030000,1626256357783,
2021-07-14 11:54:28 AM,0.020000,1626256357786,
2021-07-14 11:54:28 AM,0.010000,1626256357790,
2021-07-14 11:54:28 AM,0.000000,1626256357793,
2021-07-14 11:54:28 AM,0.010000,1626256357796,
2021-07-14 11:54:28 AM,0.020000,1626256357800,
2021-07-14 11:54:28 AM,0.030000,1626256357803,
2021-07-14 11:54:28 AM,0.050000,1626256357806,
2021-07-14 11:54:28 AM,0.060000,1626256357810,
2021-07-14 11:54:28 AM,0.060000,1626256357813,
2021-07-14 11:54:28 AM,0.070000,1626256357816,
2021-07-14 11:54:28 AM,0.070000,1626256357820,
2021-07-14 11:54:28 AM,0.060000,1626256357823,
2021-07-14 11:54:28 AM,0.060000,1626256357826,
2021-07-14 11:54:28 AM,0.060000,1626256357830,
2021-07-14 11:54:28 AM,0.060000,1626256357833,
2021-07-14 11:54:28 AM,0.070000,1626256357836,
2021-07-14 11:54:28 AM,0.070000,1626256357840,
2021-07-14 11:54:28 AM,0.060000,1626256357843,
2021-07-14 11:54:28 AM,0.050000,1626256357846,
2021-07-14 11:54:28 AM,0.050000,1626256357850,
2021-07-14 11:54:28 AM,0.020000,1626256357853,
2021-07-14 11:54:28 AM,0.020000,1626256357856,
2021-07-14 11:54:28 AM,0.000000,1626256357860,
2021-07-14 11:54:28 AM,-0.010000,1626256357863,
2021-07-14 11:54:28 AM,0.000000,1626256357866,
2021-07-14 11:54:28 AM,0.010000,1626256357870,
2021-07-14 11:54:28 AM,0.020000,1626256357873,
2021-07-14 11:54:28 AM,0.010000,1626256357876,
2021-07-14 11:54:28 AM,0.010000,1626256357880,
2021-07-14 11:54:28 AM,0.020000,1626256357883,
2021-07-14 11:54:28 AM,0.030000,1626256357886,
2021-07-14 11:54:28 AM,0.040000,1626256357890,
2021-07-14 11:54:28 AM,0.040000,1626256357893,
2021-07-14 11:54:28 AM,0.040000,1626256357896,
2021-07-14 11:54:28 AM,0.060000,1626256357900,
2021-07-14 11:54:28 AM,0.080000,1626256357903,
2021-07-14 11:54:28 AM,0.100000,1626256357906,
2021-07-14 11:54:28 AM,0.080000,1626256357910,
2021-07-14 11:54:28 AM,0.080000,1626256357913,
2021-07-14 11:54:28 AM,0.070000,1626256357916,
2021-07-14 11:54:28 AM,0.070000,1626256357920,
2021-07-14 11:54:28 AM,0.060000,1626256357923,
2021-07-14 11:54:28 AM,0.040000,1626256357926,
2021-07-14 11:54:28 AM,0.010000,1626256357930,
2021-07-14 11:54:28 AM,-0.010000,1626256357933,
2021-07-14 11:54:28 AM,-0.020000,1626256357936,
2021-07-14 11:54:28 AM,-0.030000,1626256357940,
2021-07-14 11:54:28 AM,-0.030000,1626256357943,
2021-07-14 11:54:28 AM,-0.010000,1626256357946,
2021-07-14 11:54:28 AM,0.000000,1626256357950,
2021-07-14 11:54:28 AM,0.040000,1626256357953,
2021-07-14 11:54:28 AM,0.060000,1626256357956,
2021-07-14 11:54:28 AM,0.080000,1626256357960,
2021-07-14 11:54:28 AM,0.080000,1626256357963,
2021-07-14 11:54:28 AM,0.100000,1626256357966,
2021-07-14 11:54:28 AM,0.140000,1626256357970,
2021-07-14 11:54:28 AM,0.160000,1626256357973,
2021-07-14 11:54:28 AM,0.160000,1626256357976,
2021-07-14 11:54:28 AM,0.160000,1626256357980,
2021-07-14 11:54:28 AM,0.160000,1626256357983,
2021-07-14 11:54:28 AM,0.200000,1626256357986,
2021-07-14 11:54:28 AM,0.230000,1626256357990,
2021-07-14 11:54:28 AM,0.310000,1626256357993,
2021-07-14 11:54:28 AM,0.360000,1626256357996,
2021-07-14 11:54:29 AM,0.380000,1626256358000,
2021-07-14 11:54:29 AM,0.340000,1626256358003,
2021-07-14 11:54:29 AM,0.300000,1626256358006,
2021-07-14 11:54:29 AM,0.240000,1626256358010,
2021-07-14 11:54:29 AM,0.250000,1626256358013,
2021-07-14 11:54:29 AM,0.250000,1626256358016,
2021-07-14 11:54:29 AM,0.260000,1626256358020,
2021-07-14 11:54:29 AM,0.260000,1626256358023,
2021-07-14 11:54:29 AM,0.270000,1626256358026,
2021-07-14 11:54:29 AM,0.270000,1626256358030,
2021-07-14 11:54:29 AM,0.290000,1626256358033,
2021-07-14 11:54:29 AM,0.310000,1626256358036,
2021-07-14 11:54:29 AM,0.320000,1626256358040,
2021-07-14 11:54:29 AM,0.320000,1626256358043,
2021-07-14 11:54:29 AM,0.310000,1626256358046,
2021-07-14 11:54:29 AM,0.280000,1626256358050,
2021-07-14 11:54:29 AM,0.270000,1626256358053,
2021-07-14 11:54:29 AM,0.260000,1626256358056,
2021-07-14 11:54:29 AM,0.280000,1626256358060,
2021-07-14 11:54:29 AM,0.300000,1626256358063,
2021-07-14 11:54:29 AM,0.310000,1626256358066,
2021-07-14 11:54:29 AM,0.340000,1626256358070,
2021-07-14 11:54:29 AM,0.370000,1626256358073,
2021-07-14 11:54:29 AM,0.390000,1626256358076,
2021-07-14 11:54:29 AM,0.420000,1626256358080,
2021-07-14 11:54:29 AM,0.430000,1626256358083,
2021-07-14 11:54:29 AM,0.430000,1626256358086,
2021-07-14 11:54:29 AM,0.440000,1626256358090,
2021-07-14 11:54:29 AM,0.440000,1626256358093,
2021-07-14 11:54:29 AM,0.410000,1626256358096,
2021-07-14 11:54:29 AM,0.360000,1626256358100,
2021-07-14 11:54:29 AM,0.300000,1626256358103,
2021-07-14 11:54:29 AM,0.250000,1626256358106,
2021-07-14 11:54:29 AM,0.250000,1626256358110,
2021-07-14 11:54:29 AM,0.260000,1626256358113,
2021-07-14 11:54:29 AM,0.280000,1626256358116,
2021-07-14 11:54:29 AM,0.310000,1626256358120,
2021-07-14 11:54:29 AM,0.320000,1626256358123,
2021-07-14 11:54:29 AM,0.320000,1626256358126,
2021-07-14 11:54:29 AM,0.320000,1626256358130,
2021-07-14 11:54:29 AM,0.330000,1626256358133,
2021-07-14 11:54:29 AM,0.360000,1626256358136,
2021-07-14 11:54:29 AM,0.370000,1626256358140,
2021-07-14 11:54:29 AM,0.370000,1626256358143,
2021-07-14 11:54:29 AM,0.350000,1626256358146,
2021-07-14 11:54:29 AM,0.320000,1626256358150,
2021-07-14 11:54:29 AM,0.300000,1626256358153,
2021-07-14 11:54:29 AM,0.280000,1626256358156,
2021-07-14 11:54:29 AM,0.270000,1626256358160,
2021-07-14 11:54:29 AM,0.250000,1626256358163,
2021-07-14 11:54:29 AM,0.250000,1626256358166,
2021-07-14 11:54:29 AM,0.250000,1626256358170,
2021-07-14 11:54:29 AM,0.260000,1626256358173,
2021-07-14 11:54:29 AM,0.240000,1626256358176,
2021-07-14 11:54:29 AM,0.220000,1626256358180,
2021-07-14 11:54:29 AM,0.200000,1626256358183,
2021-07-14 11:54:29 AM,0.180000,1626256358186,
2021-07-14 11:54:29 AM,0.180000,1626256358190,
2021-07-14 11:54:29 AM,0.180000,1626256358193,
2021-07-14 11:54:29 AM,0.190000,1626256358196,
2021-07-14 11:54:29 AM,0.210000,1626256358200,
2021-07-14 11:54:29 AM,0.230000,1626256358203,
2021-07-14 11:54:29 AM,0.230000,1626256358206,
2021-07-14 11:54:29 AM,0.220000,1626256358210,
2021-07-14 11:54:29 AM,0.200000,1626256358213,
2021-07-14 11:54:29 AM,0.190000,1626256358216,
2021-07-14 11:54:29 AM,0.180000,1626256358220,
2021-07-14 11:54:29 AM,0.180000,1626256358223,
2021-07-14 11:54:29 AM,0.190000,1626256358226,
2021-07-14 11:54:29 AM,0.200000,1626256358230,
2021-07-14 11:54:29 AM,0.210000,1626256358233,
2021-07-14 11:54:29 AM,0.190000,1626256358236,
2021-07-14 11:54:29 AM,0.180000,1626256358240,
2021-07-14 11:54:29 AM,0.170000,1626256358243,
2021-07-14 11:54:29 AM,0.150000,1626256358246,
2021-07-14 11:54:29 AM,0.140000,1626256358250,
2021-07-14 11:54:29 AM,0.140000,1626256358253,
2021-07-14 11:54:29 AM,0.140000,1626256358256,
2021-07-14 11:54:29 AM,0.160000,1626256358260,
2021-07-14 11:54:29 AM,0.160000,1626256358263,
2021-07-14 11:54:29 AM,0.180000,1626256358266,
2021-07-14 11:54:29 AM,0.190000,1626256358270,
2021-07-14 11:54:29 AM,0.180000,1626256358273,
2021-07-14 11:54:29 AM,0.170000,1626256358276,
2021-07-14 11:54:29 AM,0.180000,1626256358280,
2021-07-14 11:54:29 AM,0.180000,1626256358283,
2021-07-14 11:54:29 AM,0.220000,1626256358286,
2021-07-14 11:54:29 AM,0.240000,1626256358290,
2021-07-14 11:54:29 AM,0.250000,1626256358293,
2021-07-14 11:54:29 AM,0.250000,1626256358296,
2021-07-14 11:54:29 AM,0.240000,1626256358300,
2021-07-14 11:54:29 AM,0.200000,1626256358303,
2021-07-14 11:54:29 AM,0.160000,1626256358306,
2021-07-14 11:54:29 AM,0.110000,1626256358310,
2021-07-14 11:54:29 AM,0.080000,1626256358313,
2021-07-14 11:54:29 AM,0.070000,1626256358316,
2021-07-14 11:54:29 AM,0.090000,1626256358320,
2021-07-14 11:54:29 AM,0.120000,1626256358323,
2021-07-14 11:54:29 AM,0.130000,1626256358326,
2021-07-14 11:54:29 AM,0.110000,1626256358330,
2021-07-14 11:54:29 AM,0.060000,1626256358333,
2021-07-14 11:54:29 AM,0.010000,1626256358336,
2021-07-14 11:54:29 AM,-0.060000,1626256358340,
2021-07-14 11:54:29 AM,-0.100000,1626256358343,
2021-07-14 11:54:29 AM,-0.100000,1626256358346,
2021-07-14 11:54:29 AM,-0.070000,1626256358350,
2021-07-14 11:54:29 AM,-0.050000,1626256358353,
2021-07-14 11:54:29 AM,-0.070000,1626256358356,
2021-07-14 11:54:29 AM,-0.120000,1626256358360,
2021-07-14 11:54:29 AM,-0.210000,1626256358363,
2021-07-14 11:54:29 AM,-0.310000,1626256358366,
2021-07-14 11:54:29 AM,-0.430000,1626256358370,
2021-07-14 11:54:29 AM,-0.520000,1626256358373,
2021-07-14 11:54:29 AM,-0.620000,1626256358376,
2021-07-14 11:54:29 AM,-0.690000,1626256358380,
2021-07-14 11:54:29 AM,-0.750000,1626256358383,
2021-07-14 11:54:29 AM,-0.790000,1626256358386,
2021-07-14 11:54:29 AM,-0.780000,1626256358390,
2021-07-14 11:54:29 AM,-0.740000,1626256358393,
2021-07-14 11:54:29 AM,-0.660000,1626256358396,
2021-07-14 11:54:29 AM,-0.580000,1626256358400,
2021-07-14 11:54:29 AM,-0.490000,1626256358403,
2021-07-14 11:54:29 AM,-0.380000,1626256358406,
2021-07-14 11:54:29 AM,-0.250000,1626256358410,
2021-07-14 11:54:29 AM,-0.130000,1626256358413,
2021-07-14 11:54:29 AM,-0.030000,1626256358416,
2021-07-14 11:54:29 AM,0.040000,1626256358420,
2021-07-14 11:54:29 AM,0.060000,1626256358423,
2021-07-14 11:54:29 AM,0.080000,1626256358426,
2021-07-14 11:54:29 AM,0.070000,1626256358430,
2021-07-14 11:54:29 AM,0.070000,1626256358433,
2021-07-14 11:54:29 AM,0.110000,1626256358436,
2021-07-14 11:54:29 AM,0.150000,1626256358440,
2021-07-14 11:54:29 AM,0.230000,1626256358443,
2021-07-14 11:54:29 AM,0.290000,1626256358446,
2021-07-14 11:54:29 AM,0.330000,1626256358450,
2021-07-14 11:54:29 AM,0.310000,1626256358453,
2021-07-14 11:54:29 AM,0.270000,1626256358456,
2021-07-14 11:54:29 AM,0.230000,1626256358460,
2021-07-14 11:54:29 AM,0.210000,1626256358463,
2021-07-14 11:54:29 AM,0.220000,1626256358466,
2021-07-14 11:54:29 AM,0.260000,1626256358470,
2021-07-14 11:54:29 AM,0.290000,1626256358473,
2021-07-14 11:54:29 AM,0.310000,1626256358476,
2021-07-14 11:54:29 AM,0.310000,1626256358480,
2021-07-14 11:54:29 AM,0.300000,1626256358483,
2021-07-14 11:54:29 AM,0.300000,1626256358486,
2021-07-14 11:54:29 AM,0.320000,1626256358490,
2021-07-14 11:54:29 AM,0.370000,1626256358493,
2021-07-14 11:54:29 AM,0.450000,1626256358496,
2021-07-14 11:54:29 AM,0.650000,1626256358500,
2021-07-14 11:54:29 AM,1.030000,1626256358503,
2021-07-14 11:54:29 AM,1.570000,1626256358506,
2021-07-14 11:54:29 AM,2.210000,1626256358510,
2021-07-14 11:54:29 AM,2.800000,1626256358513,
2021-07-14 11:54:29 AM,3.300000,1626256358516,
2021-07-14 11:54:29 AM,3.530000,1626256358520,
2021-07-14 11:54:29 AM,3.260000,1626256358523,
2021-07-14 11:54:29 AM,2.170000,1626256358526,
2021-07-14 11:54:29 AM,-0.050000,1626256358530,
2021-07-14 11:54:29 AM,-3.490000,1626256358533,
2021-07-14 11:54:29 AM,-7.600000,1626256358536,
2021-07-14 11:54:29 AM,-11.340000,1626256358540,
2021-07-14 11:54:29 AM,-13.550000,1626256358543,
2021-07-14 11:54:29 AM,-13.490000,1626256358546,
2021-07-14 11:54:29 AM,-11.390000,1626256358550,
2021-07-14 11:54:29 AM,-8.030000,1626256358553,
2021-07-14 11:54:29 AM,-4.400000,1626256358556,
2021-07-14 11:54:29 AM,-1.210000,1626256358560,
2021-07-14 11:54:29 AM,1.250000,1626256358563,
2021-07-14 11:54:29 AM,2.900000,1626256358566,
2021-07-14 11:54:29 AM,3.850000,1626256358570,
2021-07-14 11:54:29 AM,4.250000,1626256358573,
2021-07-14 11:54:29 AM,4.180000,1626256358576,
2021-07-14 11:54:29 AM,3.780000,1626256358580,
2021-07-14 11:54:29 AM,3.140000,1626256358583,
2021-07-14 11:54:29 AM,2.450000,1626256358586,
2021-07-14 11:54:29 AM,1.830000,1626256358590,
2021-07-14 11:54:29 AM,1.350000,1626256358593,
2021-07-14 11:54:29 AM,1.030000,1626256358596,
2021-07-14 11:54:29 AM,0.800000,1626256358600,
2021-07-14 11:54:29 AM,0.650000,1626256358603,
2021-07-14 11:54:29 AM,0.540000,1626256358606,
2021-07-14 11:54:29 AM,0.450000,1626256358610,
2021-07-14 11:54:29 AM,0.380000,1626256358613,
2021-07-14 11:54:29 AM,0.350000,1626256358616,
2021-07-14 11:54:29 AM,0.320000,1626256358620,
2021-07-14 11:54:29 AM,0.260000,1626256358623,
2021-07-14 11:54:29 AM,0.190000,1626256358626,
2021-07-14 11:54:29 AM,0.110000,1626256358630,
2021-07-14 11:54:29 AM,0.040000,1626256358633,
2021-07-14 11:54:29 AM,0.010000,1626256358636,
2021-07-14 11:54:29 AM,0.010000,1626256358640,
2021-07-14 11:54:29 AM,0.030000,1626256358643,
2021-07-14 11:54:29 AM,0.060000,1626256358646,
2021-07-14 11:54:29 AM,0.090000,1626256358650,
2021-07-14 11:54:29 AM,0.090000,1626256358653,
2021-07-14 11:54:29 AM,0.070000,1626256358656,
2021-07-14 11:54:29 AM,0.020000,1626256358660,
2021-07-14 11:54:29 AM,-0.020000,1626256358663,
2021-07-14 11:54:29 AM,-0.050000,1626256358666,
2021-07-14 11:54:29 AM,-0.090000,1626256358670,
2021-07-14 11:54:29 AM,-0.130000,1626256358673,
2021-07-14 11:54:29 AM,-0.150000,1626256358676,
2021-07-14 11:54:29 AM,-0.170000,1626256358680,
2021-07-14 11:54:29 AM,-0.180000,1626256358683,
2021-07-14 11:54:29 AM,-0.180000,1626256358686,
2021-07-14 11:54:29 AM,-0.170000,1626256358690,
2021-07-14 11:54:29 AM,-0.150000,1626256358693,
2021-07-14 11:54:29 AM,-0.110000,1626256358696,
2021-07-14 11:54:29 AM,-0.100000,1626256358700,
2021-07-14 11:54:29 AM,-0.100000,1626256358703,
2021-07-14 11:54:29 AM,-0.130000,1626256358706,
2021-07-14 11:54:29 AM,-0.190000,1626256358710,
2021-07-14 11:54:29 AM,-0.230000,1626256358713,
2021-07-14 11:54:29 AM,-0.290000,1626256358716,
2021-07-14 11:54:29 AM,-0.310000,1626256358720,
2021-07-14 11:54:29 AM,-0.330000,1626256358723,
2021-07-14 11:54:29 AM,-0.320000,1626256358726,
2021-07-14 11:54:29 AM,-0.330000,1626256358730,
2021-07-14 11:54:29 AM,-0.340000,1626256358733,
2021-07-14 11:54:29 AM,-0.350000,1626256358736,
2021-07-14 11:54:29 AM,-0.380000,1626256358740,
2021-07-14 11:54:29 AM,-0.410000,1626256358743,
2021-07-14 11:54:29 AM,-0.420000,1626256358746,
2021-07-14 11:54:29 AM,-0.460000,1626256358750,
2021-07-14 11:54:29 AM,-0.460000,1626256358753,
2021-07-14 11:54:29 AM,-0.430000,1626256358756,
2021-07-14 11:54:29 AM,-0.380000,1626256358760,
2021-07-14 11:54:29 AM,-0.340000,1626256358763,
2021-07-14 11:54:29 AM,-0.340000,1626256358766,
2021-07-14 11:54:29 AM,-0.380000,1626256358770,
2021-07-14 11:54:29 AM,-0.450000,1626256358773,
2021-07-14 11:54:29 AM,-0.500000,1626256358776,
2021-07-14 11:54:29 AM,-0.540000,1626256358780,
2021-07-14 11:54:29 AM,-0.560000,1626256358783,
2021-07-14 11:54:29 AM,-0.570000,1626256358786,
2021-07-14 11:54:29 AM,-0.570000,1626256358790,
2021-07-14 11:54:29 AM,-0.570000,1626256358793,
2021-07-14 11:54:29 AM,-0.590000,1626256358796,
2021-07-14 11:54:29 AM,-0.630000,1626256358800,
2021-07-14 11:54:29 AM,-0.690000,1626256358803,
2021-07-14 11:54:29 AM,-0.770000,1626256358806,
2021-07-14 11:54:29 AM,-0.830000,1626256358810,
2021-07-14 11:54:29 AM,-0.890000,1626256358813,
2021-07-14 11:54:29 AM,-0.940000,1626256358816,
2021-07-14 11:54:29 AM,-0.980000,1626256358820,
2021-07-14 11:54:29 AM,-1.020000,1626256358823,
2021-07-14 11:54:29 AM,-1.050000,1626256358826,
2021-07-14 11:54:29 AM,-1.070000,1626256358830,
2021-07-14 11:54:29 AM,-1.100000,1626256358833,
2021-07-14 11:54:29 AM,-1.120000,1626256358836,
2021-07-14 11:54:29 AM,-1.150000,1626256358840,
2021-07-14 11:54:29 AM,-1.180000,1626256358843,
2021-07-14 11:54:29 AM,-1.210000,1626256358846,
2021-07-14 11:54:29 AM,-1.210000,1626256358850,
2021-07-14 11:54:29 AM,-1.180000,1626256358853,
2021-07-14 11:54:29 AM,-1.120000,1626256358856,
2021-07-14 11:54:29 AM,-1.010000,1626256358860,
2021-07-14 11:54:29 AM,-0.870000,1626256358863,
2021-07-14 11:54:29 AM,-0.740000,1626256358866,
2021-07-14 11:54:29 AM,-0.630000,1626256358870,
2021-07-14 11:54:29 AM,-0.540000,1626256358873,
2021-07-14 11:54:29 AM,-0.470000,1626256358876,
2021-07-14 11:54:29 AM,-0.430000,1626256358880,
2021-07-14 11:54:29 AM,-0.390000,1626256358883,
2021-07-14 11:54:29 AM,-0.380000,1626256358886,
2021-07-14 11:54:29 AM,-0.340000,1626256358890,
2021-07-14 11:54:29 AM,-0.310000,1626256358893,
2021-07-14 11:54:29 AM,-0.250000,1626256358896,
2021-07-14 11:54:29 AM,-0.200000,1626256358900,
2021-07-14 11:54:29 AM,-0.140000,1626256358903,
2021-07-14 11:54:29 AM,-0.110000,1626256358906,
2021-07-14 11:54:29 AM,-0.050000,1626256358910,
2021-07-14 11:54:29 AM,0.000000,1626256358913,
2021-07-14 11:54:29 AM,0.030000,1626256358916,
2021-07-14 11:54:29 AM,0.040000,1626256358920,
2021-07-14 11:54:29 AM,0.040000,1626256358923,
2021-07-14 11:54:29 AM,0.030000,1626256358926,
2021-07-14 11:54:29 AM,0.000000,1626256358930,
2021-07-14 11:54:29 AM,-0.040000,1626256358933,
2021-07-14 11:54:29 AM,-0.070000,1626256358936,
2021-07-14 11:54:29 AM,-0.120000,1626256358940,
2021-07-14 11:54:29 AM,-0.160000,1626256358943,
2021-07-14 11:54:29 AM,-0.160000,1626256358946,
2021-07-14 11:54:29 AM,-0.130000,1626256358950,
2021-07-14 11:54:29 AM,-0.080000,1626256358953,
2021-07-14 11:54:29 AM,-0.040000,1626256358956,
2021-07-14 11:54:29 AM,-0.020000,1626256358960,
2021-07-14 11:54:29 AM,-0.020000,1626256358963,
2021-07-14 11:54:29 AM,-0.070000,1626256358966,
2021-07-14 11:54:29 AM,-0.100000,1626256358970,
2021-07-14 11:54:29 AM,-0.130000,1626256358973,
2021-07-14 11:54:29 AM,-0.110000,1626256358976,
2021-07-14 11:54:29 AM,-0.090000,1626256358980,
2021-07-14 11:54:29 AM,-0.100000,1626256358983,
2021-07-14 11:54:29 AM,-0.130000,1626256358986,
2021-07-14 11:54:29 AM,-0.150000,1626256358990,
2021-07-14 11:54:29 AM,-0.170000,1626256358993,
2021-07-14 11:54:29 AM,-0.170000,1626256358996,
2021-07-14 11:54:30 AM,-0.160000,1626256359000,
2021-07-14 11:54:30 AM,-0.150000,1626256359003,
2021-07-14 11:54:30 AM,-0.120000,1626256359006,
2021-07-14 11:54:30 AM,-0.100000,1626256359010,
2021-07-14 11:54:30 AM,-0.060000,1626256359013,
2021-07-14 11:54:30 AM,-0.010000,1626256359016,
2021-07-14 11:54:30 AM,0.040000,1626256359020,
2021-07-14 11:54:30 AM,0.070000,1626256359023,
2021-07-14 11:54:30 AM,0.080000,1626256359026,
2021-07-14 11:54:30 AM,0.060000,1626256359030,
2021-07-14 11:54:30 AM,0.040000,1626256359033,
2021-07-14 11:54:30 AM,0.020000,1626256359036,
2021-07-14 11:54:30 AM,0.000000,1626256359040,
2021-07-14 11:54:30 AM,-0.010000,1626256359043,
2021-07-14 11:54:30 AM,-0.010000,1626256359046,
2021-07-14 11:54:30 AM,-0.010000,1626256359050,
2021-07-14 11:54:30 AM,-0.010000,1626256359053,
2021-07-14 11:54:30 AM,0.010000,1626256359056,
2021-07-14 11:54:30 AM,0.050000,1626256359060,
2021-07-14 11:54:30 AM,0.070000,1626256359063,
2021-07-14 11:54:30 AM,0.080000,1626256359066,
2021-07-14 11:54:30 AM,0.090000,1626256359070,
2021-07-14 11:54:30 AM,0.100000,1626256359073,
2021-07-14 11:54:30 AM,0.120000,1626256359076,
2021-07-14 11:54:30 AM,0.140000,1626256359080,
2021-07-14 11:54:30 AM,0.150000,1626256359083,
2021-07-14 11:54:30 AM,0.130000,1626256359086,
2021-07-14 11:54:30 AM,0.080000,1626256359090,
2021-07-14 11:54:30 AM,0.060000,1626256359093,
2021-07-14 11:54:30 AM,0.040000,1626256359096,
2021-07-14 11:54:30 AM,0.040000,1626256359100,
2021-07-14 11:54:30 AM,0.040000,1626256359103,
2021-07-14 11:54:30 AM,0.070000,1626256359106,
2021-07-14 11:54:30 AM,0.100000,1626256359110,
2021-07-14 11:54:30 AM,0.130000,1626256359113,
2021-07-14 11:54:30 AM,0.170000,1626256359116,
2021-07-14 11:54:30 AM,0.230000,1626256359120,
2021-07-14 11:54:30 AM,0.270000,1626256359123,
2021-07-14 11:54:30 AM,0.290000,1626256359126,
2021-07-14 11:54:30 AM,0.270000,1626256359130,
2021-07-14 11:54:30 AM,0.220000,1626256359133,
2021-07-14 11:54:30 AM,0.170000,1626256359136,
2021-07-14 11:54:30 AM,0.110000,1626256359140,
2021-07-14 11:54:30 AM,0.100000,1626256359143,
2021-07-14 11:54:30 AM,0.100000,1626256359146,
2021-07-14 11:54:30 AM,0.120000,1626256359150,
2021-07-14 11:54:30 AM,0.140000,1626256359153,
2021-07-14 11:54:30 AM,0.170000,1626256359156,
2021-07-14 11:54:30 AM,0.170000,1626256359160,
2021-07-14 11:54:30 AM,0.170000,1626256359163,
2021-07-14 11:54:30 AM,0.180000,1626256359166,
2021-07-14 11:54:30 AM,0.180000,1626256359170,
2021-07-14 11:54:30 AM,0.150000,1626256359173,
2021-07-14 11:54:30 AM,0.110000,1626256359176,
2021-07-14 11:54:30 AM,0.080000,1626256359180,
2021-07-14 11:54:30 AM,0.050000,1626256359183,
2021-07-14 11:54:30 AM,0.040000,1626256359186,
2021-07-14 11:54:30 AM,0.040000,1626256359190,
2021-07-14 11:54:30 AM,0.050000,1626256359193,
2021-07-14 11:54:30 AM,0.050000,1626256359196,
2021-07-14 11:54:30 AM,0.050000,1626256359200,
2021-07-14 11:54:30 AM,0.040000,1626256359203,
2021-07-14 11:54:30 AM,0.040000,1626256359206,
2021-07-14 11:54:30 AM,0.040000,1626256359210,
2021-07-14 11:54:30 AM,0.030000,1626256359213,
2021-07-14 11:54:30 AM,0.030000,1626256359216,
2021-07-14 11:54:30 AM,0.020000,1626256359220,
2021-07-14 11:54:30 AM,0.010000,1626256359223,
2021-07-14 11:54:30 AM,0.010000,1626256359226,
2021-07-14 11:54:30 AM,0.040000,1626256359230,
2021-07-14 11:54:30 AM,0.090000,1626256359233,
2021-07-14 11:54:30 AM,0.140000,1626256359236,
2021-07-14 11:54:30 AM,0.200000,1626256359240,
2021-07-14 11:54:30 AM,0.200000,1626256359243,
2021-07-14 11:54:30 AM,0.160000,1626256359246,
2021-07-14 11:54:30 AM,0.120000,1626256359250,
2021-07-14 11:54:30 AM,0.070000,1626256359253,
2021-07-14 11:54:30 AM,0.070000,1626256359256,
2021-07-14 11:54:30 AM,0.080000,1626256359260,
2021-07-14 11:54:30 AM,0.070000,1626256359263,
2021-07-14 11:54:30 AM,0.070000,1626256359266,
2021-07-14 11:54:30 AM,0.040000,1626256359270,
2021-07-14 11:54:30 AM,-0.010000,1626256359273,
2021-07-14 11:54:30 AM,-0.050000,1626256359276,
2021-07-14 11:54:30 AM,-0.080000,1626256359280,
2021-07-14 11:54:30 AM,-0.090000,1626256359283,
2021-07-14 11:54:30 AM,-0.040000,1626256359286,
2021-07-14 11:54:30 AM,0.040000,1626256359290,
2021-07-14 11:54:30 AM,0.090000,1626256359293,
2021-07-14 11:54:30 AM,0.120000,1626256359296,
2021-07-14 11:54:30 AM,0.120000,1626256359300,
2021-07-14 11:54:30 AM,0.090000,1626256359303,
2021-07-14 11:54:30 AM,0.070000,1626256359306,
2021-07-14 11:54:30 AM,0.060000,1626256359310,
2021-07-14 11:54:30 AM,0.060000,1626256359313,
2021-07-14 11:54:30 AM,0.060000,1626256359316,
2021-07-14 11:54:30 AM,0.050000,1626256359320,
2021-07-14 11:54:30 AM,0.060000,1626256359323,
2021-07-14 11:54:30 AM,0.070000,1626256359326,
2021-07-14 11:54:30 AM,0.050000,1626256359330,
2021-07-14 11:54:30 AM,0.050000,1626256359333,
2021-07-14 11:54:30 AM,0.040000,1626256359336,
2021-07-14 11:54:30 AM,0.050000,1626256359340,
2021-07-14 11:54:30 AM,0.070000,1626256359343,
2021-07-14 11:54:30 AM,0.100000,1626256359346,
2021-07-14 11:54:30 AM,0.130000,1626256359350,
2021-07-14 11:54:30 AM,0.140000,1626256359353,
2021-07-14 11:54:30 AM,0.120000,1626256359356,
2021-07-14 11:54:30 AM,0.070000,1626256359360,
2021-07-14 11:54:30 AM,0.010000,1626256359363,
2021-07-14 11:54:30 AM,-0.040000,1626256359366,
2021-07-14 11:54:30 AM,-0.050000,1626256359370,
2021-07-14 11:54:30 AM,-0.020000,1626256359373,
2021-07-14 11:54:30 AM,0.020000,1626256359376,
2021-07-14 11:54:30 AM,0.050000,1626256359380,
2021-07-14 11:54:30 AM,0.100000,1626256359383,
2021-07-14 11:54:30 AM,0.130000,1626256359386,
2021-07-14 11:54:30 AM,0.130000,1626256359390,
2021-07-14 11:54:30 AM,0.120000,1626256359393,
2021-07-14 11:54:30 AM,0.120000,1626256359396,
2021-07-14 11:54:30 AM,0.080000,1626256359400,
2021-07-14 11:54:30 AM,0.070000,1626256359403,
2021-07-14 11:54:30 AM,0.070000,1626256359406,
2021-07-14 11:54:30 AM,0.060000,1626256359410,
2021-07-14 11:54:30 AM,0.060000,1626256359413,
2021-07-14 11:54:30 AM,0.060000,1626256359416,
2021-07-14 11:54:30 AM,0.050000,1626256359420,
2021-07-14 11:54:30 AM,0.030000,1626256359423,
2021-07-14 11:54:30 AM,0.030000,1626256359426,
2021-07-14 11:54:30 AM,0.030000,1626256359430,
2021-07-14 11:54:30 AM,0.030000,1626256359433,
2021-07-14 11:54:30 AM,0.050000,1626256359436,
2021-07-14 11:54:30 AM,0.050000,1626256359440,
2021-07-14 11:54:30 AM,0.050000,1626256359443,
2021-07-14 11:54:30 AM,0.010000,1626256359446,
2021-07-14 11:54:30 AM,-0.010000,1626256359450,
2021-07-14 11:54:30 AM,-0.030000,1626256359453,
2021-07-14 11:54:30 AM,-0.010000,1626256359456,
2021-07-14 11:54:30 AM,0.020000,1626256359460,
2021-07-14 11:54:30 AM,0.060000,1626256359463,
2021-07-14 11:54:30 AM,0.070000,1626256359466,
2021-07-14 11:54:30 AM,0.070000,1626256359470,
2021-07-14 11:54:30 AM,0.000000,1626256359473,
2021-07-14 11:54:30 AM,-0.080000,1626256359476,
2021-07-14 11:54:30 AM,-0.190000,1626256359480,
2021-07-14 11:54:30 AM,-0.270000,1626256359483,
2021-07-14 11:54:30 AM,-0.340000,1626256359486,
2021-07-14 11:54:30 AM,-0.380000,1626256359490,
2021-07-14 11:54:30 AM,-0.420000,1626256359493,
2021-07-14 11:54:30 AM,-0.460000,1626256359496,
2021-07-14 11:54:30 AM,-0.530000,1626256359500,
2021-07-14 11:54:30 AM,-0.630000,1626256359503,
2021-07-14 11:54:30 AM,-0.740000,1626256359506,
2021-07-14 11:54:30 AM,-0.840000,1626256359510,
2021-07-14 11:54:30 AM,-0.920000,1626256359513,
2021-07-14 11:54:30 AM,-0.980000,1626256359516,
2021-07-14 11:54:30 AM,-1.000000,1626256359520,
2021-07-14 11:54:30 AM,-0.980000,1626256359523,
2021-07-14 11:54:30 AM,-0.960000,1626256359526,
2021-07-14 11:54:30 AM,-0.930000,1626256359530,
2021-07-14 11:54:30 AM,-0.890000,1626256359533,
2021-07-14 11:54:30 AM,-0.840000,1626256359536,
2021-07-14 11:54:30 AM,-0.770000,1626256359540,
2021-07-14 11:54:30 AM,-0.670000,1626256359543,
2021-07-14 11:54:30 AM,-0.560000,1626256359546,
2021-07-14 11:54:30 AM,-0.440000,1626256359550,
2021-07-14 11:54:30 AM,-0.320000,1626256359553,
2021-07-14 11:54:30 AM,-0.240000,1626256359556,
2021-07-14 11:54:30 AM,-0.180000,1626256359560,
2021-07-14 11:54:30 AM,-0.140000,1626256359563,
2021-07-14 11:54:30 AM,-0.110000,1626256359566,
2021-07-14 11:54:30 AM,-0.100000,1626256359570,
2021-07-14 11:54:30 AM,-0.080000,1626256359573,
2021-07-14 11:54:30 AM,-0.030000,1626256359576,
2021-07-14 11:54:30 AM,0.020000,1626256359580,
2021-07-14 11:54:30 AM,0.050000,1626256359583,
2021-07-14 11:54:30 AM,0.070000,1626256359586,
2021-07-14 11:54:30 AM,0.100000,1626256359590,
2021-07-14 11:54:30 AM,0.120000,1626256359593,
2021-07-14 11:54:30 AM,0.140000,1626256359596,
2021-07-14 11:54:30 AM,0.150000,1626256359600,
2021-07-14 11:54:30 AM,0.160000,1626256359603,
2021-07-14 11:54:30 AM,0.150000,1626256359606,
2021-07-14 11:54:30 AM,0.120000,1626256359610,
2021-07-14 11:54:30 AM,0.080000,1626256359613,
2021-07-14 11:54:30 AM,0.060000,1626256359616,
2021-07-14 11:54:30 AM,0.020000,1626256359620,
2021-07-14 11:54:30 AM,-0.010000,1626256359623,
2021-07-14 11:54:30 AM,-0.030000,1626256359626,
2021-07-14 11:54:30 AM,-0.030000,1626256359630,
2021-07-14 11:54:30 AM,0.010000,1626256359633,
2021-07-14 11:54:30 AM,0.090000,1626256359636,
2021-07-14 11:54:30 AM,0.230000,1626256359640,
2021-07-14 11:54:30 AM,0.540000,1626256359643,
2021-07-14 11:54:30 AM,1.060000,1626256359646,
2021-07-14 11:54:30 AM,1.730000,1626256359650,
2021-07-14 11:54:30 AM,2.460000,1626256359653,
2021-07-14 11:54:30 AM,3.090000,1626256359656,
2021-07-14 11:54:30 AM,3.500000,1626256359660,
2021-07-14 11:54:30 AM,3.490000,1626256359663,
2021-07-14 11:54:30 AM,2.740000,1626256359666,
2021-07-14 11:54:30 AM,0.910000,1626256359670,
2021-07-14 11:54:30 AM,-2.250000,1626256359673,
2021-07-14 11:54:30 AM,-6.440000,1626256359676,
2021-07-14 11:54:30 AM,-10.750000,1626256359680,
2021-07-14 11:54:30 AM,-13.890000,1626256359683,
2021-07-14 11:54:30 AM,-14.820000,1626256359686,
2021-07-14 11:54:30 AM,-13.380000,1626256359690,
2021-07-14 11:54:30 AM,-10.200000,1626256359693,
2021-07-14 11:54:30 AM,-6.320000,1626256359696,
2021-07-14 11:54:30 AM,-2.640000,1626256359700,
2021-07-14 11:54:30 AM,0.280000,1626256359703,
2021-07-14 11:54:30 AM,2.260000,1626256359706,
2021-07-14 11:54:30 AM,3.340000,1626256359710,
2021-07-14 11:54:30 AM,3.700000,1626256359713,
2021-07-14 11:54:30 AM,3.520000,1626256359716,
2021-07-14 11:54:30 AM,2.990000,1626256359720,
2021-07-14 11:54:30 AM,2.300000,1626256359723,
2021-07-14 11:54:30 AM,1.620000,1626256359726,
2021-07-14 11:54:30 AM,1.060000,1626256359730,
2021-07-14 11:54:30 AM,0.640000,1626256359733,
2021-07-14 11:54:30 AM,0.390000,1626256359736,
2021-07-14 11:54:30 AM,0.250000,1626256359740,
2021-07-14 11:54:30 AM,0.180000,1626256359743,
2021-07-14 11:54:30 AM,0.140000,1626256359746,
2021-07-14 11:54:30 AM,0.100000,1626256359750,
2021-07-14 11:54:30 AM,0.060000,1626256359753,
2021-07-14 11:54:30 AM,0.030000,1626256359756,
2021-07-14 11:54:30 AM,0.000000,1626256359760,
2021-07-14 11:54:30 AM,-0.020000,1626256359763,
2021-07-14 11:54:30 AM,-0.030000,1626256359766,
2021-07-14 11:54:30 AM,-0.040000,1626256359770,
2021-07-14 11:54:30 AM,-0.060000,1626256359773,
2021-07-14 11:54:30 AM,-0.070000,1626256359776,
2021-07-14 11:54:30 AM,-0.110000,1626256359780,
2021-07-14 11:54:30 AM,-0.140000,1626256359783,
2021-07-14 11:54:30 AM,-0.190000,1626256359786,
2021-07-14 11:54:30 AM,-0.240000,1626256359790,
2021-07-14 11:54:30 AM,-0.250000,1626256359793,
2021-07-14 11:54:30 AM,-0.260000,1626256359796,
2021-07-14 11:54:30 AM,-0.260000,1626256359800,
2021-07-14 11:54:30 AM,-0.260000,1626256359803,
2021-07-14 11:54:30 AM,-0.260000,1626256359806,
2021-07-14 11:54:30 AM,-0.280000,1626256359810,
2021-07-14 11:54:30 AM,-0.300000,1626256359813,
2021-07-14 11:54:30 AM,-0.330000,1626256359816,
2021-07-14 11:54:30 AM,-0.360000,1626256359820,
2021-07-14 11:54:30 AM,-0.380000,1626256359823,
2021-07-14 11:54:30 AM,-0.400000,1626256359826,
2021-07-14 11:54:30 AM,-0.420000,1626256359830,
2021-07-14 11:54:30 AM,-0.420000,1626256359833,
2021-07-14 11:54:30 AM,-0.430000,1626256359836,
2021-07-14 11:54:30 AM,-0.430000,1626256359840,
2021-07-14 11:54:30 AM,-0.450000,1626256359843,
2021-07-14 11:54:30 AM,-0.470000,1626256359846,
2021-07-14 11:54:30 AM,-0.480000,1626256359850,
2021-07-14 11:54:30 AM,-0.480000,1626256359853,
2021-07-14 11:54:30 AM,-0.490000,1626256359856,
2021-07-14 11:54:30 AM,-0.480000,1626256359860,
2021-07-14 11:54:30 AM,-0.480000,1626256359863,
2021-07-14 11:54:30 AM,-0.480000,1626256359866,
2021-07-14 11:54:30 AM,-0.490000,1626256359870,
2021-07-14 11:54:30 AM,-0.510000,1626256359873,
2021-07-14 11:54:30 AM,-0.510000,1626256359876,
2021-07-14 11:54:30 AM,-0.530000,1626256359880,
2021-07-14 11:54:30 AM,-0.540000,1626256359883,
2021-07-14 11:54:30 AM,-0.530000,1626256359886,
2021-07-14 11:54:30 AM,-0.540000,1626256359890,
2021-07-14 11:54:30 AM,-0.540000,1626256359893,
2021-07-14 11:54:30 AM,-0.540000,1626256359896,
2021-07-14 11:54:30 AM,-0.550000,1626256359900,
2021-07-14 11:54:30 AM,-0.540000,1626256359903,
2021-07-14 11:54:30 AM,-0.540000,1626256359906,
2021-07-14 11:54:30 AM,-0.540000,1626256359910,
2021-07-14 11:54:30 AM,-0.550000,1626256359913,
2021-07-14 11:54:30 AM,-0.570000,1626256359916,
2021-07-14 11:54:30 AM,-0.600000,1626256359920,
2021-07-14 11:54:30 AM,-0.610000,1626256359923,
2021-07-14 11:54:30 AM,-0.640000,1626256359926,
2021-07-14 11:54:30 AM,-0.670000,1626256359930,
2021-07-14 11:54:30 AM,-0.680000,1626256359933,
2021-07-14 11:54:30 AM,-0.700000,1626256359936,
2021-07-14 11:54:30 AM,-0.730000,1626256359940,
2021-07-14 11:54:30 AM,-0.770000,1626256359943,
2021-07-14 11:54:30 AM,-0.800000,1626256359946,
2021-07-14 11:54:30 AM,-0.840000,1626256359950,
2021-07-14 11:54:30 AM,-0.880000,1626256359953,
2021-07-14 11:54:30 AM,-0.930000,1626256359956,
2021-07-14 11:54:30 AM,-1.010000,1626256359960,
2021-07-14 11:54:30 AM,-1.090000,1626256359963,
2021-07-14 11:54:30 AM,-1.180000,1626256359966,
2021-07-14 11:54:30 AM,-1.260000,1626256359970,
2021-07-14 11:54:30 AM,-1.340000,1626256359973,
2021-07-14 11:54:30 AM,-1.380000,1626256359976,
2021-07-14 11:54:30 AM,-1.390000,1626256359980,
2021-07-14 11:54:30 AM,-1.370000,1626256359983,
2021-07-14 11:54:30 AM,-1.300000,1626256359986,
2021-07-14 11:54:30 AM,-1.230000,1626256359990,
2021-07-14 11:54:30 AM,-1.190000,1626256359993,
2021-07-14 11:54:30 AM,-1.160000,1626256359996,
2021-07-14 11:54:31 AM,-1.140000,1626256360000,
2021-07-14 11:54:31 AM,-1.120000,1626256360003,
2021-07-14 11:54:31 AM,-1.090000,1626256360006,
2021-07-14 11:54:31 AM,-1.040000,1626256360010,
2021-07-14 11:54:31 AM,-0.950000,1626256360013,
2021-07-14 11:54:31 AM,-0.880000,1626256360016,
2021-07-14 11:54:31 AM,-0.790000,1626256360020,
2021-07-14 11:54:31 AM,-0.720000,1626256360023,
2021-07-14 11:54:31 AM,-0.670000,1626256360026,
2021-07-14 11:54:31 AM,-0.630000,1626256360030,
2021-07-14 11:54:31 AM,-0.610000,1626256360033,
2021-07-14 11:54:31 AM,-0.560000,1626256360036,
2021-07-14 11:54:31 AM,-0.560000,1626256360040,
2021-07-14 11:54:31 AM,-0.510000,1626256360043,
2021-07-14 11:54:31 AM,-0.470000,1626256360046,
2021-07-14 11:54:31 AM,-0.430000,1626256360050,
2021-07-14 11:54:31 AM,-0.410000,1626256360053,
2021-07-14 11:54:31 AM,-0.400000,1626256360056,
2021-07-14 11:54:31 AM,-0.400000,1626256360060,
2021-07-14 11:54:31 AM,-0.390000,1626256360063,
2021-07-14 11:54:31 AM,-0.380000,1626256360066,
2021-07-14 11:54:31 AM,-0.380000,1626256360070,
2021-07-14 11:54:31 AM,-0.370000,1626256360073,
2021-07-14 11:54:31 AM,-0.370000,1626256360076,
2021-07-14 11:54:31 AM,-0.400000,1626256360080,
2021-07-14 11:54:31 AM,-0.410000,1626256360083,
2021-07-14 11:54:31 AM,-0.410000,1626256360086,
2021-07-14 11:54:31 AM,-0.420000,1626256360090,
2021-07-14 11:54:31 AM,-0.440000,1626256360093,
2021-07-14 11:54:31 AM,-0.440000,1626256360096,
2021-07-14 11:54:31 AM,-0.460000,1626256360100,
2021-07-14 11:54:31 AM,-0.490000,1626256360103,
2021-07-14 11:54:31 AM,-0.500000,1626256360106,
2021-07-14 11:54:31 AM,-0.500000,1626256360110,
2021-07-14 11:54:31 AM,-0.500000,1626256360113,
2021-07-14 11:54:31 AM,-0.490000,1626256360116,
2021-07-14 11:54:31 AM,-0.490000,1626256360120,
2021-07-14 11:54:31 AM,-0.490000,1626256360123,
2021-07-14 11:54:31 AM,-0.480000,1626256360126,
2021-07-14 11:54:31 AM,-0.480000,1626256360130,
2021-07-14 11:54:31 AM,-0.470000,1626256360133,
2021-07-14 11:54:31 AM,-0.440000,1626256360136,
2021-07-14 11:54:31 AM,-0.410000,1626256360140,
2021-07-14 11:54:31 AM,-0.370000,1626256360143,
2021-07-14 11:54:31 AM,-0.350000,1626256360146,
2021-07-14 11:54:31 AM,-0.360000,1626256360150,
2021-07-14 11:54:31 AM,-0.390000,1626256360153,
2021-07-14 11:54:31 AM,-0.410000,1626256360156,
2021-07-14 11:54:31 AM,-0.430000,1626256360160,
2021-07-14 11:54:31 AM,-0.440000,1626256360163,
2021-07-14 11:54:31 AM,-0.410000,1626256360166,
2021-07-14 11:54:31 AM,-0.390000,1626256360170,
2021-07-14 11:54:31 AM,-0.380000,1626256360173,
2021-07-14 11:54:31 AM,-0.380000,1626256360176,
2021-07-14 11:54:31 AM,-0.380000,1626256360180,
2021-07-14 11:54:31 AM,-0.370000,1626256360183,
2021-07-14 11:54:31 AM,-0.370000,1626256360186,
2021-07-14 11:54:31 AM,-0.340000,1626256360190,
2021-07-14 11:54:31 AM,-0.320000,1626256360193,
2021-07-14 11:54:31 AM,-0.330000,1626256360196,
2021-07-14 11:54:31 AM,-0.350000,1626256360200,
2021-07-14 11:54:31 AM,-0.360000,1626256360203,
2021-07-14 11:54:31 AM,-0.370000,1626256360206,
2021-07-14 11:54:31 AM,-0.370000,1626256360210,
2021-07-14 11:54:31 AM,-0.360000,1626256360213,
2021-07-14 11:54:31 AM,-0.310000,1626256360216,
2021-07-14 11:54:31 AM,-0.290000,1626256360220,
2021-07-14 11:54:31 AM,-0.240000,1626256360223,
2021-07-14 11:54:31 AM,-0.210000,1626256360226,
2021-07-14 11:54:31 AM,-0.190000,1626256360230,
2021-07-14 11:54:31 AM,-0.170000,1626256360233,
2021-07-14 11:54:31 AM,-0.150000,1626256360236,
2021-07-14 11:54:31 AM,-0.130000,1626256360240,
2021-07-14 11:54:31 AM,-0.100000,1626256360243,
2021-07-14 11:54:31 AM,-0.040000,1626256360246,
2021-07-14 11:54:31 AM,-0.020000,1626256360250,
2021-07-14 11:54:31 AM,-0.010000,1626256360253,
2021-07-14 11:54:31 AM,-0.020000,1626256360256,
2021-07-14 11:54:31 AM,-0.060000,1626256360260,
2021-07-14 11:54:31 AM,-0.080000,1626256360263,
2021-07-14 11:54:31 AM,-0.100000,1626256360266,
2021-07-14 11:54:31 AM,-0.100000,1626256360270,
2021-07-14 11:54:31 AM,-0.090000,1626256360273,
2021-07-14 11:54:31 AM,-0.080000,1626256360276,
2021-07-14 11:54:31 AM,-0.040000,1626256360280,
2021-07-14 11:54:31 AM,-0.020000,1626256360283,
2021-07-14 11:54:31 AM,0.000000,1626256360286,
2021-07-14 11:54:31 AM,0.010000,1626256360290,
2021-07-14 11:54:31 AM,0.010000,1626256360293,
2021-07-14 11:54:31 AM,0.000000,1626256360296,
2021-07-14 11:54:31 AM,-0.020000,1626256360300,
2021-07-14 11:54:31 AM,-0.030000,1626256360303,
2021-07-14 11:54:31 AM,-0.050000,1626256360306,
2021-07-14 11:54:31 AM,-0.060000,1626256360310,
2021-07-14 11:54:31 AM,-0.060000,1626256360313,
2021-07-14 11:54:31 AM,-0.040000,1626256360316,
2021-07-14 11:54:31 AM,-0.040000,1626256360320,
2021-07-14 11:54:31 AM,-0.040000,1626256360323,
2021-07-14 11:54:31 AM,-0.050000,1626256360326,
2021-07-14 11:54:31 AM,-0.060000,1626256360330,
2021-07-14 11:54:31 AM,-0.050000,1626256360333,
2021-07-14 11:54:31 AM,-0.040000,1626256360336,
2021-07-14 11:54:31 AM,-0.030000,1626256360340,
2021-07-14 11:54:31 AM,-0.030000,1626256360343,
2021-07-14 11:54:31 AM,-0.010000,1626256360346,
2021-07-14 11:54:31 AM,-0.020000,1626256360350,
2021-07-14 11:54:31 AM,-0.010000,1626256360353,
2021-07-14 11:54:31 AM,0.000000,1626256360356,
2021-07-14 11:54:31 AM,0.000000,1626256360360,
2021-07-14 11:54:31 AM,0.000000,1626256360363,
2021-07-14 11:54:31 AM,0.000000,1626256360366,
2021-07-14 11:54:31 AM,0.020000,1626256360370,
2021-07-14 11:54:31 AM,0.050000,1626256360373,
2021-07-14 11:54:31 AM,0.110000,1626256360376,
2021-07-14 11:54:31 AM,0.140000,1626256360380,
2021-07-14 11:54:31 AM,0.150000,1626256360383,
2021-07-14 11:54:31 AM,0.140000,1626256360386,
2021-07-14 11:54:31 AM,0.140000,1626256360390,
2021-07-14 11:54:31 AM,0.140000,1626256360393,
2021-07-14 11:54:31 AM,0.150000,1626256360396,
2021-07-14 11:54:31 AM,0.160000,1626256360400,
2021-07-14 11:54:31 AM,0.170000,1626256360403,
2021-07-14 11:54:31 AM,0.180000,1626256360406,
2021-07-14 11:54:31 AM,0.200000,1626256360410,
2021-07-14 11:54:31 AM,0.190000,1626256360413,
2021-07-14 11:54:31 AM,0.190000,1626256360416,
2021-07-14 11:54:31 AM,0.200000,1626256360420,
2021-07-14 11:54:31 AM,0.220000,1626256360423,
2021-07-14 11:54:31 AM,0.240000,1626256360426,
2021-07-14 11:54:31 AM,0.240000,1626256360430,
2021-07-14 11:54:31 AM,0.240000,1626256360433,
2021-07-14 11:54:31 AM,0.210000,1626256360436,
2021-07-14 11:54:31 AM,0.160000,1626256360440,
2021-07-14 11:54:31 AM,0.120000,1626256360443,
2021-07-14 11:54:31 AM,0.090000,1626256360446,
2021-07-14 11:54:31 AM,0.070000,1626256360450,
2021-07-14 11:54:31 AM,0.070000,1626256360453,
2021-07-14 11:54:31 AM,0.070000,1626256360456,
2021-07-14 11:54:31 AM,0.060000,1626256360460,
2021-07-14 11:54:31 AM,0.080000,1626256360463,
2021-07-14 11:54:31 AM,0.110000,1626256360466,
2021-07-14 11:54:31 AM,0.140000,1626256360470,
2021-07-14 11:54:31 AM,0.130000,1626256360473,
2021-07-14 11:54:31 AM,0.140000,1626256360476,
2021-07-14 11:54:31 AM,0.140000,1626256360480,
2021-07-14 11:54:31 AM,0.150000,1626256360483,
2021-07-14 11:54:31 AM,0.150000,1626256360486,
2021-07-14 11:54:31 AM,0.150000,1626256360490,
2021-07-14 11:54:31 AM,0.130000,1626256360493,
2021-07-14 11:54:31 AM,0.110000,1626256360496,
2021-07-14 11:54:31 AM,0.080000,1626256360500,
2021-07-14 11:54:31 AM,0.070000,1626256360503,
2021-07-14 11:54:31 AM,0.070000,1626256360506,
2021-07-14 11:54:31 AM,0.070000,1626256360510,
2021-07-14 11:54:31 AM,0.100000,1626256360513,
2021-07-14 11:54:31 AM,0.100000,1626256360516,
2021-07-14 11:54:31 AM,0.100000,1626256360520,
2021-07-14 11:54:31 AM,0.090000,1626256360523,
2021-07-14 11:54:31 AM,0.100000,1626256360526,
2021-07-14 11:54:31 AM,0.090000,1626256360530,
2021-07-14 11:54:31 AM,0.080000,1626256360533,
2021-07-14 11:54:31 AM,0.080000,1626256360536,
2021-07-14 11:54:31 AM,0.080000,1626256360540,
2021-07-14 11:54:31 AM,0.070000,1626256360543,
2021-07-14 11:54:31 AM,0.060000,1626256360546,
2021-07-14 11:54:31 AM,0.040000,1626256360550,
2021-07-14 11:54:31 AM,0.040000,1626256360553,
2021-07-14 11:54:31 AM,0.050000,1626256360556,
2021-07-14 11:54:31 AM,0.030000,1626256360560,
2021-07-14 11:54:31 AM,0.020000,1626256360563,
2021-07-14 11:54:31 AM,0.020000,1626256360566,
2021-07-14 11:54:31 AM,-0.010000,1626256360570,
2021-07-14 11:54:31 AM,-0.020000,1626256360573,
2021-07-14 11:54:31 AM,-0.010000,1626256360576,
2021-07-14 11:54:31 AM,-0.020000,1626256360580,
2021-07-14 11:54:31 AM,-0.020000,1626256360583,
2021-07-14 11:54:31 AM,-0.020000,1626256360586,
2021-07-14 11:54:31 AM,-0.040000,1626256360590,
2021-07-14 11:54:31 AM,-0.030000,1626256360593,
2021-07-14 11:54:31 AM,-0.030000,1626256360596,
2021-07-14 11:54:31 AM,-0.040000,1626256360600,
2021-07-14 11:54:31 AM,-0.040000,1626256360603,
2021-07-14 11:54:31 AM,-0.030000,1626256360606,
2021-07-14 11:54:31 AM,-0.030000,1626256360610,
2021-07-14 11:54:31 AM,-0.020000,1626256360613,
2021-07-14 11:54:31 AM,0.000000,1626256360616,
2021-07-14 11:54:31 AM,0.010000,1626256360620,
2021-07-14 11:54:31 AM,0.020000,1626256360623,
2021-07-14 11:54:31 AM,0.040000,1626256360626,
2021-07-14 11:54:31 AM,0.050000,1626256360630,
2021-07-14 11:54:31 AM,0.080000,1626256360633,
2021-07-14 11:54:31 AM,0.090000,1626256360636,
2021-07-14 11:54:31 AM,0.110000,1626256360640,
2021-07-14 11:54:31 AM,0.120000,1626256360643,
2021-07-14 11:54:31 AM,0.140000,1626256360646,
2021-07-14 11:54:31 AM,0.170000,1626256360650,
2021-07-14 11:54:31 AM,0.170000,1626256360653,
2021-07-14 11:54:31 AM,0.170000,1626256360656,
2021-07-14 11:54:31 AM,0.170000,1626256360660,
2021-07-14 11:54:31 AM,0.150000,1626256360663,
2021-07-14 11:54:31 AM,0.130000,1626256360666,
2021-07-14 11:54:31 AM,0.110000,1626256360670,
2021-07-14 11:54:31 AM,0.120000,1626256360673,
2021-07-14 11:54:31 AM,0.140000,1626256360676,
2021-07-14 11:54:31 AM,0.150000,1626256360680,
2021-07-14 11:54:31 AM,0.160000,1626256360683,
2021-07-14 11:54:31 AM,0.150000,1626256360686,
2021-07-14 11:54:31 AM,0.120000,1626256360690,
2021-07-14 11:54:31 AM,0.080000,1626256360693,
2021-07-14 11:54:31 AM,0.060000,1626256360696,
2021-07-14 11:54:31 AM,0.040000,1626256360700,
2021-07-14 11:54:31 AM,0.060000,1626256360703,
2021-07-14 11:54:31 AM,0.060000,1626256360706,
2021-07-14 11:54:31 AM,0.070000,1626256360710,
2021-07-14 11:54:31 AM,0.060000,1626256360713,
2021-07-14 11:54:31 AM,0.010000,1626256360716,
2021-07-14 11:54:31 AM,-0.060000,1626256360720,
2021-07-14 11:54:31 AM,-0.150000,1626256360723,
2021-07-14 11:54:31 AM,-0.240000,1626256360726,
2021-07-14 11:54:31 AM,-0.350000,1626256360730,
2021-07-14 11:54:31 AM,-0.420000,1626256360733,
2021-07-14 11:54:31 AM,-0.500000,1626256360736,
2021-07-14 11:54:31 AM,-0.550000,1626256360740,
2021-07-14 11:54:31 AM,-0.590000,1626256360743,
2021-07-14 11:54:31 AM,-0.610000,1626256360746,
2021-07-14 11:54:31 AM,-0.610000,1626256360750,
2021-07-14 11:54:31 AM,-0.580000,1626256360753,
2021-07-14 11:54:31 AM,-0.520000,1626256360756,
2021-07-14 11:54:31 AM,-0.460000,1626256360760,
2021-07-14 11:54:31 AM,-0.370000,1626256360763,
2021-07-14 11:54:31 AM,-0.280000,1626256360766,
2021-07-14 11:54:31 AM,-0.200000,1626256360770,
2021-07-14 11:54:31 AM,-0.120000,1626256360773,
2021-07-14 11:54:31 AM,-0.040000,1626256360776,
2021-07-14 11:54:31 AM,0.020000,1626256360780,
2021-07-14 11:54:31 AM,0.090000,1626256360783,
2021-07-14 11:54:31 AM,0.140000,1626256360786,
2021-07-14 11:54:31 AM,0.170000,1626256360790,
2021-07-14 11:54:31 AM,0.190000,1626256360793,
2021-07-14 11:54:31 AM,0.220000,1626256360796,
2021-07-14 11:54:31 AM,0.230000,1626256360800,
2021-07-14 11:54:31 AM,0.220000,1626256360803,
2021-07-14 11:54:31 AM,0.240000,1626256360806,
2021-07-14 11:54:31 AM,0.230000,1626256360810,
2021-07-14 11:54:31 AM,0.230000,1626256360813,
2021-07-14 11:54:31 AM,0.220000,1626256360816,
2021-07-14 11:54:31 AM,0.210000,1626256360820,
2021-07-14 11:54:31 AM,0.200000,1626256360823,
2021-07-14 11:54:31 AM,0.220000,1626256360826,
2021-07-14 11:54:31 AM,0.230000,1626256360830,
2021-07-14 11:54:31 AM,0.270000,1626256360833,
2021-07-14 11:54:31 AM,0.290000,1626256360836,
2021-07-14 11:54:31 AM,0.300000,1626256360840,
2021-07-14 11:54:31 AM,0.300000,1626256360843,
2021-07-14 11:54:31 AM,0.280000,1626256360846,
2021-07-14 11:54:31 AM,0.260000,1626256360850,
2021-07-14 11:54:31 AM,0.260000,1626256360853,
2021-07-14 11:54:31 AM,0.300000,1626256360856,
2021-07-14 11:54:31 AM,0.420000,1626256360860,
2021-07-14 11:54:31 AM,0.720000,1626256360863,
2021-07-14 11:54:31 AM,1.220000,1626256360866,
2021-07-14 11:54:31 AM,1.830000,1626256360870,
2021-07-14 11:54:31 AM,2.430000,1626256360873,
2021-07-14 11:54:31 AM,2.920000,1626256360876,
2021-07-14 11:54:31 AM,3.140000,1626256360880,
2021-07-14 11:54:31 AM,2.930000,1626256360883,
2021-07-14 11:54:31 AM,1.960000,1626256360886,
2021-07-14 11:54:31 AM,-0.040000,1626256360890,
2021-07-14 11:54:31 AM,-3.200000,1626256360893,
2021-07-14 11:54:31 AM,-7.080000,1626256360896,
2021-07-14 11:54:31 AM,-10.730000,1626256360900,
2021-07-14 11:54:31 AM,-12.970000,1626256360903,
2021-07-14 11:54:31 AM,-13.070000,1626256360906,
2021-07-14 11:54:31 AM,-11.180000,1626256360910,
2021-07-14 11:54:31 AM,-8.010000,1626256360913,
2021-07-14 11:54:31 AM,-4.530000,1626256360916,
2021-07-14 11:54:31 AM,-1.450000,1626256360920,
2021-07-14 11:54:31 AM,0.920000,1626256360923,
2021-07-14 11:54:31 AM,2.520000,1626256360926,
2021-07-14 11:54:31 AM,3.450000,1626256360930,
2021-07-14 11:54:31 AM,3.850000,1626256360933,
2021-07-14 11:54:31 AM,3.830000,1626256360936,
2021-07-14 11:54:31 AM,3.500000,1626256360940,
2021-07-14 11:54:31 AM,2.940000,1626256360943,
2021-07-14 11:54:31 AM,2.290000,1626256360946,
2021-07-14 11:54:31 AM,1.690000,1626256360950,
2021-07-14 11:54:31 AM,1.220000,1626256360953,
2021-07-14 11:54:31 AM,0.870000,1626256360956,
2021-07-14 11:54:31 AM,0.640000,1626256360960,
2021-07-14 11:54:31 AM,0.500000,1626256360963,
2021-07-14 11:54:31 AM,0.410000,1626256360966,
2021-07-14 11:54:31 AM,0.350000,1626256360970,
2021-07-14 11:54:31 AM,0.310000,1626256360973,
2021-07-14 11:54:31 AM,0.280000,1626256360976,
2021-07-14 11:54:31 AM,0.240000,1626256360980,
2021-07-14 11:54:31 AM,0.210000,1626256360983,
2021-07-14 11:54:31 AM,0.180000,1626256360986,
2021-07-14 11:54:31 AM,0.140000,1626256360990,
2021-07-14 11:54:31 AM,0.140000,1626256360993,
2021-07-14 11:54:31 AM,0.150000,1626256360996,
2021-07-14 11:54:32 AM,0.150000,1626256361000,
2021-07-14 11:54:32 AM,0.150000,1626256361003,
2021-07-14 11:54:32 AM,0.130000,1626256361006,
2021-07-14 11:54:32 AM,0.110000,1626256361010,
2021-07-14 11:54:32 AM,0.080000,1626256361013,
2021-07-14 11:54:32 AM,0.050000,1626256361016,
2021-07-14 11:54:32 AM,0.000000,1626256361020,
2021-07-14 11:54:32 AM,-0.040000,1626256361023,
2021-07-14 11:54:32 AM,-0.080000,1626256361026,
2021-07-14 11:54:32 AM,-0.100000,1626256361030,
2021-07-14 11:54:32 AM,-0.120000,1626256361033,
2021-07-14 11:54:32 AM,-0.140000,1626256361036,
2021-07-14 11:54:32 AM,-0.160000,1626256361040,
2021-07-14 11:54:32 AM,-0.170000,1626256361043,
2021-07-14 11:54:32 AM,-0.190000,1626256361046,
2021-07-14 11:54:32 AM,-0.200000,1626256361050,
2021-07-14 11:54:32 AM,-0.210000,1626256361053,
2021-07-14 11:54:32 AM,-0.220000,1626256361056,
2021-07-14 11:54:32 AM,-0.250000,1626256361060,
2021-07-14 11:54:32 AM,-0.290000,1626256361063,
2021-07-14 11:54:32 AM,-0.340000,1626256361066,
2021-07-14 11:54:32 AM,-0.380000,1626256361070,
2021-07-14 11:54:32 AM,-0.380000,1626256361073,
2021-07-14 11:54:32 AM,-0.380000,1626256361076,
2021-07-14 11:54:32 AM,-0.370000,1626256361080,
2021-07-14 11:54:32 AM,-0.370000,1626256361083,
2021-07-14 11:54:32 AM,-0.390000,1626256361086,
2021-07-14 11:54:32 AM,-0.410000,1626256361090,
2021-07-14 11:54:32 AM,-0.430000,1626256361093,
2021-07-14 11:54:32 AM,-0.450000,1626256361096,
2021-07-14 11:54:32 AM,-0.470000,1626256361100,
2021-07-14 11:54:32 AM,-0.480000,1626256361103,
2021-07-14 11:54:32 AM,-0.470000,1626256361106,
2021-07-14 11:54:32 AM,-0.480000,1626256361110,
2021-07-14 11:54:32 AM,-0.470000,1626256361113,
2021-07-14 11:54:32 AM,-0.480000,1626256361116,
2021-07-14 11:54:32 AM,-0.470000,1626256361120,
2021-07-14 11:54:32 AM,-0.490000,1626256361123,
2021-07-14 11:54:32 AM,-0.500000,1626256361126,
2021-07-14 11:54:32 AM,-0.520000,1626256361130,
2021-07-14 11:54:32 AM,-0.520000,1626256361133,
2021-07-14 11:54:32 AM,-0.530000,1626256361136,
2021-07-14 11:54:32 AM,-0.540000,1626256361140,
2021-07-14 11:54:32 AM,-0.570000,1626256361143,
2021-07-14 11:54:32 AM,-0.600000,1626256361146,
2021-07-14 11:54:32 AM,-0.620000,1626256361150,
2021-07-14 11:54:32 AM,-0.650000,1626256361153,
2021-07-14 11:54:32 AM,-0.700000,1626256361156,
2021-07-14 11:54:32 AM,-0.760000,1626256361160,
2021-07-14 11:54:32 AM,-0.820000,1626256361163,
2021-07-14 11:54:32 AM,-0.880000,1626256361166,
2021-07-14 11:54:32 AM,-0.930000,1626256361170,
2021-07-14 11:54:32 AM,-0.960000,1626256361173,
2021-07-14 11:54:32 AM,-1.000000,1626256361176,
2021-07-14 11:54:32 AM,-1.060000,1626256361180,
2021-07-14 11:54:32 AM,-1.130000,1626256361183,
2021-07-14 11:54:32 AM,-1.220000,1626256361186,
2021-07-14 11:54:32 AM,-1.280000,1626256361190,
2021-07-14 11:54:32 AM,-1.330000,1626256361193,
2021-07-14 11:54:32 AM,-1.340000,1626256361196,
2021-07-14 11:54:32 AM,-1.340000,1626256361200,
2021-07-14 11:54:32 AM,-1.340000,1626256361203,
2021-07-14 11:54:32 AM,-1.320000,1626256361206,
2021-07-14 11:54:32 AM,-1.290000,1626256361210,
2021-07-14 11:54:32 AM,-1.270000,1626256361213,
2021-07-14 11:54:32 AM,-1.200000,1626256361216,
2021-07-14 11:54:32 AM,-1.140000,1626256361220,
2021-07-14 11:54:32 AM,-1.070000,1626256361223,
2021-07-14 11:54:32 AM,-0.990000,1626256361226,
2021-07-14 11:54:32 AM,-0.910000,1626256361230,
2021-07-14 11:54:32 AM,-0.830000,1626256361233,
2021-07-14 11:54:32 AM,-0.770000,1626256361236,
2021-07-14 11:54:32 AM,-0.710000,1626256361240,
2021-07-14 11:54:32 AM,-0.670000,1626256361243,
2021-07-14 11:54:32 AM,-0.640000,1626256361246,
2021-07-14 11:54:32 AM,-0.600000,1626256361250,
2021-07-14 11:54:32 AM,-0.540000,1626256361253,
2021-07-14 11:54:32 AM,-0.480000,1626256361256,
2021-07-14 11:54:32 AM,-0.430000,1626256361260,
2021-07-14 11:54:32 AM,-0.400000,1626256361263,
2021-07-14 11:54:32 AM,-0.370000,1626256361266,
2021-07-14 11:54:32 AM,-0.350000,1626256361270,
2021-07-14 11:54:32 AM,-0.360000,1626256361273,
2021-07-14 11:54:32 AM,-0.360000,1626256361276,
2021-07-14 11:54:32 AM,-0.350000,1626256361280,
2021-07-14 11:54:32 AM,-0.350000,1626256361283,
2021-07-14 11:54:32 AM,-0.360000,1626256361286,
2021-07-14 11:54:32 AM,-0.360000,1626256361290,
2021-07-14 11:54:32 AM,-0.390000,1626256361293,
2021-07-14 11:54:32 AM,-0.430000,1626256361296,
2021-07-14 11:54:32 AM,-0.450000,1626256361300,
2021-07-14 11:54:32 AM,-0.460000,1626256361303,
2021-07-14 11:54:32 AM,-0.450000,1626256361306,
2021-07-14 11:54:32 AM,-0.470000,1626256361310,
2021-07-14 11:54:32 AM,-0.480000,1626256361313,
2021-07-14 11:54:32 AM,-0.480000,1626256361316,
2021-07-14 11:54:32 AM,-0.490000,1626256361320,
2021-07-14 11:54:32 AM,-0.470000,1626256361323,
2021-07-14 11:54:32 AM,-0.450000,1626256361326,
2021-07-14 11:54:32 AM,-0.430000,1626256361330,
2021-07-14 11:54:32 AM,-0.420000,1626256361333,
2021-07-14 11:54:32 AM,-0.400000,1626256361336,
2021-07-14 11:54:32 AM,-0.370000,1626256361340,
2021-07-14 11:54:32 AM,-0.340000,1626256361343,
2021-07-14 11:54:32 AM,-0.340000,1626256361346,
2021-07-14 11:54:32 AM,-0.360000,1626256361350,
2021-07-14 11:54:32 AM,-0.390000,1626256361353,
2021-07-14 11:54:32 AM,-0.440000,1626256361356,
2021-07-14 11:54:32 AM,-0.480000,1626256361360,
2021-07-14 11:54:32 AM,-0.500000,1626256361363,
2021-07-14 11:54:32 AM,-0.530000,1626256361366,
2021-07-14 11:54:32 AM,-0.550000,1626256361370,
2021-07-14 11:54:32 AM,-0.560000,1626256361373,
2021-07-14 11:54:32 AM,-0.550000,1626256361376,
2021-07-14 11:54:32 AM,-0.530000,1626256361380,
2021-07-14 11:54:32 AM,-0.540000,1626256361383,
2021-07-14 11:54:32 AM,-0.530000,1626256361386,
2021-07-14 11:54:32 AM,-0.540000,1626256361390,
2021-07-14 11:54:32 AM,-0.560000,1626256361393,
2021-07-14 11:54:32 AM,-0.560000,1626256361396,
2021-07-14 11:54:32 AM,-0.560000,1626256361400,
2021-07-14 11:54:32 AM,-0.540000,1626256361403,
2021-07-14 11:54:32 AM,-0.520000,1626256361406,
2021-07-14 11:54:32 AM,-0.490000,1626256361410,
2021-07-14 11:54:32 AM,-0.470000,1626256361413,
2021-07-14 11:54:32 AM,-0.480000,1626256361416,
2021-07-14 11:54:32 AM,-0.500000,1626256361420,
2021-07-14 11:54:32 AM,-0.500000,1626256361423,
2021-07-14 11:54:32 AM,-0.490000,1626256361426,
2021-07-14 11:54:32 AM,-0.440000,1626256361430,
2021-07-14 11:54:32 AM,-0.380000,1626256361433,
2021-07-14 11:54:32 AM,-0.320000,1626256361436,
2021-07-14 11:54:32 AM,-0.250000,1626256361440,
2021-07-14 11:54:32 AM,-0.220000,1626256361443,
2021-07-14 11:54:32 AM,-0.190000,1626256361446,
2021-07-14 11:54:32 AM,-0.210000,1626256361450,
2021-07-14 11:54:32 AM,-0.230000,1626256361453,
2021-07-14 11:54:32 AM,-0.230000,1626256361456,
2021-07-14 11:54:32 AM,-0.240000,1626256361460,
2021-07-14 11:54:32 AM,-0.210000,1626256361463,
2021-07-14 11:54:32 AM,-0.190000,1626256361466,
2021-07-14 11:54:32 AM,-0.140000,1626256361470,
2021-07-14 11:54:32 AM,-0.100000,1626256361473,
2021-07-14 11:54:32 AM,-0.060000,1626256361476,
2021-07-14 11:54:32 AM,-0.050000,1626256361480,
2021-07-14 11:54:32 AM,-0.060000,1626256361483,
2021-07-14 11:54:32 AM,-0.040000,1626256361486,
2021-07-14 11:54:32 AM,-0.030000,1626256361490,
2021-07-14 11:54:32 AM,-0.030000,1626256361493,
2021-07-14 11:54:32 AM,-0.040000,1626256361496,
2021-07-14 11:54:32 AM,-0.070000,1626256361500,
2021-07-14 11:54:32 AM,-0.110000,1626256361503,
2021-07-14 11:54:32 AM,-0.160000,1626256361506,
2021-07-14 11:54:32 AM,-0.190000,1626256361510,
2021-07-14 11:54:32 AM,-0.200000,1626256361513,
2021-07-14 11:54:32 AM,-0.220000,1626256361516,
2021-07-14 11:54:32 AM,-0.220000,1626256361520,
2021-07-14 11:54:32 AM,-0.220000,1626256361523,
2021-07-14 11:54:32 AM,-0.230000,1626256361526,
2021-07-14 11:54:32 AM,-0.240000,1626256361530,
2021-07-14 11:54:32 AM,-0.250000,1626256361533,
2021-07-14 11:54:32 AM,-0.280000,1626256361536,
2021-07-14 11:54:32 AM,-0.290000,1626256361540,
2021-07-14 11:54:32 AM,-0.310000,1626256361543,
2021-07-14 11:54:32 AM,-0.300000,1626256361546,
2021-07-14 11:54:32 AM,-0.280000,1626256361550,
2021-07-14 11:54:32 AM,-0.260000,1626256361553,
2021-07-14 11:54:32 AM,-0.220000,1626256361556,
2021-07-14 11:54:32 AM,-0.180000,1626256361560,
2021-07-14 11:54:32 AM,-0.160000,1626256361563,
2021-07-14 11:54:32 AM,-0.150000,1626256361566,
2021-07-14 11:54:32 AM,-0.160000,1626256361570,
2021-07-14 11:54:32 AM,-0.180000,1626256361573,
2021-07-14 11:54:32 AM,-0.210000,1626256361576,
2021-07-14 11:54:32 AM,-0.230000,1626256361580,
2021-07-14 11:54:32 AM,-0.230000,1626256361583,
2021-07-14 11:54:32 AM,-0.240000,1626256361586,
2021-07-14 11:54:32 AM,-0.220000,1626256361590,
2021-07-14 11:54:32 AM,-0.170000,1626256361593,
2021-07-14 11:54:32 AM,-0.110000,1626256361596,
2021-07-14 11:54:32 AM,-0.040000,1626256361600,
2021-07-14 11:54:32 AM,0.010000,1626256361603,
2021-07-14 11:54:32 AM,0.020000,1626256361606,
2021-07-14 11:54:32 AM,0.010000,1626256361610,
2021-07-14 11:54:32 AM,0.000000,1626256361613,
2021-07-14 11:54:32 AM,0.000000,1626256361616,
2021-07-14 11:54:32 AM,-0.020000,1626256361620,
2021-07-14 11:54:32 AM,-0.020000,1626256361623,
2021-07-14 11:54:32 AM,-0.030000,1626256361626,
2021-07-14 11:54:32 AM,-0.020000,1626256361630,
2021-07-14 11:54:32 AM,-0.020000,1626256361633,
2021-07-14 11:54:32 AM,0.000000,1626256361636,
2021-07-14 11:54:32 AM,-0.020000,1626256361640,
2021-07-14 11:54:32 AM,-0.050000,1626256361643,
2021-07-14 11:54:32 AM,-0.090000,1626256361646,
2021-07-14 11:54:32 AM,-0.130000,1626256361650,
2021-07-14 11:54:32 AM,-0.140000,1626256361653,
2021-07-14 11:54:32 AM,-0.140000,1626256361656,
2021-07-14 11:54:32 AM,-0.120000,1626256361660,
2021-07-14 11:54:32 AM,-0.100000,1626256361663,
2021-07-14 11:54:32 AM,-0.080000,1626256361666,
2021-07-14 11:54:32 AM,-0.070000,1626256361670,
2021-07-14 11:54:32 AM,-0.070000,1626256361673,
2021-07-14 11:54:32 AM,-0.050000,1626256361676,
2021-07-14 11:54:32 AM,-0.030000,1626256361680,
2021-07-14 11:54:32 AM,-0.040000,1626256361683,
2021-07-14 11:54:32 AM,-0.050000,1626256361686,
2021-07-14 11:54:32 AM,-0.050000,1626256361690,
2021-07-14 11:54:32 AM,-0.060000,1626256361693,
2021-07-14 11:54:32 AM,-0.030000,1626256361696,
2021-07-14 11:54:32 AM,-0.010000,1626256361700,
2021-07-14 11:54:32 AM,0.050000,1626256361703,
2021-07-14 11:54:32 AM,0.080000,1626256361706,
2021-07-14 11:54:32 AM,0.090000,1626256361710,
2021-07-14 11:54:32 AM,0.080000,1626256361713,
2021-07-14 11:54:32 AM,0.040000,1626256361716,
2021-07-14 11:54:32 AM,0.020000,1626256361720,
2021-07-14 11:54:32 AM,0.000000,1626256361723,
2021-07-14 11:54:32 AM,-0.020000,1626256361726,
2021-07-14 11:54:32 AM,-0.020000,1626256361730,
2021-07-14 11:54:32 AM,-0.020000,1626256361733,
2021-07-14 11:54:32 AM,-0.040000,1626256361736,
2021-07-14 11:54:32 AM,-0.060000,1626256361740,
2021-07-14 11:54:32 AM,-0.100000,1626256361743,
2021-07-14 11:54:32 AM,-0.150000,1626256361746,
2021-07-14 11:54:32 AM,-0.160000,1626256361750,
2021-07-14 11:54:32 AM,-0.170000,1626256361753,
2021-07-14 11:54:32 AM,-0.140000,1626256361756,
2021-07-14 11:54:32 AM,-0.100000,1626256361760,
2021-07-14 11:54:32 AM,-0.050000,1626256361763,
2021-07-14 11:54:32 AM,0.000000,1626256361766,
2021-07-14 11:54:32 AM,0.030000,1626256361770,
2021-07-14 11:54:32 AM,0.030000,1626256361773,
2021-07-14 11:54:32 AM,0.000000,1626256361776,
2021-07-14 11:54:32 AM,-0.030000,1626256361780,
2021-07-14 11:54:32 AM,-0.100000,1626256361783,
2021-07-14 11:54:32 AM,-0.140000,1626256361786,
2021-07-14 11:54:32 AM,-0.170000,1626256361790,
2021-07-14 11:54:32 AM,-0.180000,1626256361793,
2021-07-14 11:54:32 AM,-0.190000,1626256361796,
2021-07-14 11:54:32 AM,-0.180000,1626256361800,
2021-07-14 11:54:32 AM,-0.160000,1626256361803,
2021-07-14 11:54:32 AM,-0.150000,1626256361806,
2021-07-14 11:54:32 AM,-0.120000,1626256361810,
2021-07-14 11:54:32 AM,-0.110000,1626256361813,
2021-07-14 11:54:32 AM,-0.100000,1626256361816,
2021-07-14 11:54:32 AM,-0.080000,1626256361820,
2021-07-14 11:54:32 AM,-0.070000,1626256361823,
2021-07-14 11:54:32 AM,-0.100000,1626256361826,
2021-07-14 11:54:32 AM,-0.140000,1626256361830,
2021-07-14 11:54:32 AM,-0.170000,1626256361833,
2021-07-14 11:54:32 AM,-0.210000,1626256361836,
2021-07-14 11:54:32 AM,-0.230000,1626256361840,
2021-07-14 11:54:32 AM,-0.280000,1626256361843,
2021-07-14 11:54:32 AM,-0.300000,1626256361846,
2021-07-14 11:54:32 AM,-0.350000,1626256361850,
2021-07-14 11:54:32 AM,-0.400000,1626256361853,
2021-07-14 11:54:32 AM,-0.460000,1626256361856,
2021-07-14 11:54:32 AM,-0.550000,1626256361860,
2021-07-14 11:54:32 AM,-0.650000,1626256361863,
2021-07-14 11:54:32 AM,-0.760000,1626256361866,
2021-07-14 11:54:32 AM,-0.870000,1626256361870,
2021-07-14 11:54:32 AM,-0.970000,1626256361873,
2021-07-14 11:54:32 AM,-1.010000,1626256361876,
2021-07-14 11:54:32 AM,-1.050000,1626256361880,
2021-07-14 11:54:32 AM,-1.030000,1626256361883,
2021-07-14 11:54:32 AM,-0.990000,1626256361886,
2021-07-14 11:54:32 AM,-0.950000,1626256361890,
2021-07-14 11:54:32 AM,-0.890000,1626256361893,
2021-07-14 11:54:32 AM,-0.810000,1626256361896,
2021-07-14 11:54:32 AM,-0.700000,1626256361900,
2021-07-14 11:54:32 AM,-0.600000,1626256361903,
2021-07-14 11:54:32 AM,-0.490000,1626256361906,
2021-07-14 11:54:32 AM,-0.380000,1626256361910,
2021-07-14 11:54:32 AM,-0.300000,1626256361913,
2021-07-14 11:54:32 AM,-0.260000,1626256361916,
2021-07-14 11:54:32 AM,-0.230000,1626256361920,
2021-07-14 11:54:32 AM,-0.210000,1626256361923,
2021-07-14 11:54:32 AM,-0.190000,1626256361926,
2021-07-14 11:54:32 AM,-0.190000,1626256361930,
2021-07-14 11:54:32 AM,-0.190000,1626256361933,
2021-07-14 11:54:32 AM,-0.180000,1626256361936,
2021-07-14 11:54:32 AM,-0.160000,1626256361940,
2021-07-14 11:54:32 AM,-0.140000,1626256361943,
2021-07-14 11:54:32 AM,-0.110000,1626256361946,
2021-07-14 11:54:32 AM,-0.100000,1626256361950,
2021-07-14 11:54:32 AM,-0.090000,1626256361953,
2021-07-14 11:54:32 AM,-0.090000,1626256361956,
2021-07-14 11:54:32 AM,-0.100000,1626256361960,
2021-07-14 11:54:32 AM,-0.080000,1626256361963,
2021-07-14 11:54:32 AM,-0.060000,1626256361966,
2021-07-14 11:54:32 AM,-0.040000,1626256361970,
2021-07-14 11:54:32 AM,-0.030000,1626256361973,
2021-07-14 11:54:32 AM,-0.030000,1626256361976,
2021-07-14 11:54:32 AM,-0.010000,1626256361980,
2021-07-14 11:54:32 AM,-0.010000,1626256361983,
2021-07-14 11:54:32 AM,0.020000,1626256361986,
2021-07-14 11:54:32 AM,0.070000,1626256361990,
2021-07-14 11:54:32 AM,0.210000,1626256361993,
2021-07-14 11:54:32 AM,0.570000,1626256361996,
2021-07-14 11:54:33 AM,1.150000,1626256362000,
2021-07-14 11:54:33 AM,1.880000,1626256362003,
2021-07-14 11:54:33 AM,2.620000,1626256362006,
2021-07-14 11:54:33 AM,3.220000,1626256362010,
2021-07-14 11:54:33 AM,3.520000,1626256362013,
2021-07-14 11:54:33 AM,3.300000,1626256362016,
2021-07-14 11:54:33 AM,2.280000,1626256362020,
2021-07-14 11:54:33 AM,0.070000,1626256362023,
2021-07-14 11:54:33 AM,-3.440000,1626256362026,
2021-07-14 11:54:33 AM,-7.800000,1626256362030,
2021-07-14 11:54:33 AM,-11.900000,1626256362033,
2021-07-14 11:54:33 AM,-14.470000,1626256362036,
2021-07-14 11:54:33 AM,-14.720000,1626256362040,
2021-07-14 11:54:33 AM,-12.720000,1626256362043,
2021-07-14 11:54:33 AM,-9.290000,1626256362046,
2021-07-14 11:54:33 AM,-5.440000,1626256362050,
2021-07-14 11:54:33 AM,-1.970000,1626256362053,
2021-07-14 11:54:33 AM,0.730000,1626256362056,
2021-07-14 11:54:33 AM,2.530000,1626256362060,
2021-07-14 11:54:33 AM,3.510000,1626256362063,
2021-07-14 11:54:33 AM,3.830000,1626256362066,
2021-07-14 11:54:33 AM,3.630000,1626256362070,
2021-07-14 11:54:33 AM,3.050000,1626256362073,
2021-07-14 11:54:33 AM,2.320000,1626256362076,
2021-07-14 11:54:33 AM,1.560000,1626256362080,
2021-07-14 11:54:33 AM,0.950000,1626256362083,
2021-07-14 11:54:33 AM,0.520000,1626256362086,
2021-07-14 11:54:33 AM,0.240000,1626256362090,
2021-07-14 11:54:33 AM,0.110000,1626256362093,
2021-07-14 11:54:33 AM,0.020000,1626256362096,
2021-07-14 11:54:33 AM,-0.040000,1626256362100,
2021-07-14 11:54:33 AM,-0.060000,1626256362103,
2021-07-14 11:54:33 AM,-0.100000,1626256362106,
2021-07-14 11:54:33 AM,-0.120000,1626256362110,
2021-07-14 11:54:33 AM,-0.150000,1626256362113,
2021-07-14 11:54:33 AM,-0.180000,1626256362116,
2021-07-14 11:54:33 AM,-0.190000,1626256362120,
2021-07-14 11:54:33 AM,-0.190000,1626256362123,
2021-07-14 11:54:33 AM,-0.170000,1626256362126,
2021-07-14 11:54:33 AM,-0.160000,1626256362130,
2021-07-14 11:54:33 AM,-0.170000,1626256362133,
2021-07-14 11:54:33 AM,-0.200000,1626256362136,
2021-07-14 11:54:33 AM,-0.230000,1626256362140,
2021-07-14 11:54:33 AM,-0.260000,1626256362143,
2021-07-14 11:54:33 AM,-0.300000,1626256362146,
2021-07-14 11:54:33 AM,-0.330000,1626256362150,
2021-07-14 11:54:33 AM,-0.360000,1626256362153,
2021-07-14 11:54:33 AM,-0.360000,1626256362156,
2021-07-14 11:54:33 AM,-0.350000,1626256362160,
2021-07-14 11:54:33 AM,-0.330000,1626256362163,
2021-07-14 11:54:33 AM,-0.320000,1626256362166,
2021-07-14 11:54:33 AM,-0.330000,1626256362170,
2021-07-14 11:54:33 AM,-0.330000,1626256362173,
2021-07-14 11:54:33 AM,-0.360000,1626256362176,
2021-07-14 11:54:33 AM,-0.370000,1626256362180,
2021-07-14 11:54:33 AM,-0.390000,1626256362183,
2021-07-14 11:54:33 AM,-0.410000,1626256362186,
2021-07-14 11:54:33 AM,-0.440000,1626256362190,
2021-07-14 11:54:33 AM,-0.460000,1626256362193,
2021-07-14 11:54:33 AM,-0.500000,1626256362196,
2021-07-14 11:54:33 AM,-0.530000,1626256362200,
2021-07-14 11:54:33 AM,-0.540000,1626256362203,
2021-07-14 11:54:33 AM,-0.550000,1626256362206,
2021-07-14 11:54:33 AM,-0.530000,1626256362210,
2021-07-14 11:54:33 AM,-0.530000,1626256362213,
2021-07-14 11:54:33 AM,-0.540000,1626256362216,
2021-07-14 11:54:33 AM,-0.560000,1626256362220,
2021-07-14 11:54:33 AM,-0.570000,1626256362223,
2021-07-14 11:54:33 AM,-0.560000,1626256362226,
2021-07-14 11:54:33 AM,-0.560000,1626256362230,
2021-07-14 11:54:33 AM,-0.570000,1626256362233,
2021-07-14 11:54:33 AM,-0.580000,1626256362236,
2021-07-14 11:54:33 AM,-0.610000,1626256362240,
2021-07-14 11:54:33 AM,-0.620000,1626256362243,
2021-07-14 11:54:33 AM,-0.600000,1626256362246,
2021-07-14 11:54:33 AM,-0.570000,1626256362250,
2021-07-14 11:54:33 AM,-0.530000,1626256362253,
2021-07-14 11:54:33 AM,-0.490000,1626256362256,
2021-07-14 11:54:33 AM,-0.470000,1626256362260,
2021-07-14 11:54:33 AM,-0.470000,1626256362263,
2021-07-14 11:54:33 AM,-0.470000,1626256362266,
2021-07-14 11:54:33 AM,-0.480000,1626256362270,
2021-07-14 11:54:33 AM,-0.520000,1626256362273,
2021-07-14 11:54:33 AM,-0.560000,1626256362276,
2021-07-14 11:54:33 AM,-0.590000,1626256362280,
2021-07-14 11:54:33 AM,-0.600000,1626256362283,
2021-07-14 11:54:33 AM,-0.620000,1626256362286,
2021-07-14 11:54:33 AM,-0.660000,1626256362290,
2021-07-14 11:54:33 AM,-0.690000,1626256362293,
2021-07-14 11:54:33 AM,-0.740000,1626256362296,
2021-07-14 11:54:33 AM,-0.800000,1626256362300,
2021-07-14 11:54:33 AM,-0.880000,1626256362303,
2021-07-14 11:54:33 AM,-0.970000,1626256362306,
2021-07-14 11:54:33 AM,-1.050000,1626256362310,
2021-07-14 11:54:33 AM,-1.130000,1626256362313,
2021-07-14 11:54:33 AM,-1.190000,1626256362316,
2021-07-14 11:54:33 AM,-1.250000,1626256362320,
2021-07-14 11:54:33 AM,-1.280000,1626256362323,
2021-07-14 11:54:33 AM,-1.280000,1626256362326,
2021-07-14 11:54:33 AM,-1.290000,1626256362330,
2021-07-14 11:54:33 AM,-1.300000,1626256362333,
2021-07-14 11:54:33 AM,-1.340000,1626256362336,
2021-07-14 11:54:33 AM,-1.410000,1626256362340,
2021-07-14 11:54:33 AM,-1.470000,1626256362343,
2021-07-14 11:54:33 AM,-1.510000,1626256362346,
2021-07-14 11:54:33 AM,-1.520000,1626256362350,
2021-07-14 11:54:33 AM,-1.470000,1626256362353,
2021-07-14 11:54:33 AM,-1.370000,1626256362356,
2021-07-14 11:54:33 AM,-1.260000,1626256362360,
2021-07-14 11:54:33 AM,-1.140000,1626256362363,
2021-07-14 11:54:33 AM,-1.040000,1626256362366,
2021-07-14 11:54:33 AM,-0.950000,1626256362370,
2021-07-14 11:54:33 AM,-0.890000,1626256362373,
2021-07-14 11:54:33 AM,-0.820000,1626256362376,
2021-07-14 11:54:33 AM,-0.760000,1626256362380,
2021-07-14 11:54:33 AM,-0.700000,1626256362383,
2021-07-14 11:54:33 AM,-0.650000,1626256362386,
2021-07-14 11:54:33 AM,-0.580000,1626256362390,
2021-07-14 11:54:33 AM,-0.540000,1626256362393,
2021-07-14 11:54:33 AM,-0.500000,1626256362396,
2021-07-14 11:54:33 AM,-0.480000,1626256362400,
2021-07-14 11:54:33 AM,-0.430000,1626256362403,
2021-07-14 11:54:33 AM,-0.400000,1626256362406,
2021-07-14 11:54:33 AM,-0.380000,1626256362410,
2021-07-14 11:54:33 AM,-0.380000,1626256362413,
2021-07-14 11:54:33 AM,-0.400000,1626256362416,
2021-07-14 11:54:33 AM,-0.420000,1626256362420,
2021-07-14 11:54:33 AM,-0.450000,1626256362423,
2021-07-14 11:54:33 AM,-0.460000,1626256362426,
2021-07-14 11:54:33 AM,-0.460000,1626256362430,
2021-07-14 11:54:33 AM,-0.460000,1626256362433,
2021-07-14 11:54:33 AM,-0.430000,1626256362436,
2021-07-14 11:54:33 AM,-0.420000,1626256362440,
2021-07-14 11:54:33 AM,-0.400000,1626256362443,
2021-07-14 11:54:33 AM,-0.390000,1626256362446,
2021-07-14 11:54:33 AM,-0.380000,1626256362450,
2021-07-14 11:54:33 AM,-0.390000,1626256362453,
2021-07-14 11:54:33 AM,-0.380000,1626256362456,
2021-07-14 11:54:33 AM,-0.400000,1626256362460,
2021-07-14 11:54:33 AM,-0.430000,1626256362463,
2021-07-14 11:54:33 AM,-0.450000,1626256362466,
2021-07-14 11:54:33 AM,-0.460000,1626256362470,
2021-07-14 11:54:33 AM,-0.440000,1626256362473,
2021-07-14 11:54:33 AM,-0.400000,1626256362476,
2021-07-14 11:54:33 AM,-0.370000,1626256362480,
2021-07-14 11:54:33 AM,-0.350000,1626256362483,
2021-07-14 11:54:33 AM,-0.360000,1626256362486,
2021-07-14 11:54:33 AM,-0.390000,1626256362490,
2021-07-14 11:54:33 AM,-0.430000,1626256362493,
2021-07-14 11:54:33 AM,-0.470000,1626256362496,
2021-07-14 11:54:33 AM,-0.470000,1626256362500,
2021-07-14 11:54:33 AM,-0.470000,1626256362503,
2021-07-14 11:54:33 AM,-0.450000,1626256362506,
2021-07-14 11:54:33 AM,-0.420000,1626256362510,
2021-07-14 11:54:33 AM,-0.400000,1626256362513,
2021-07-14 11:54:33 AM,-0.400000,1626256362516,
2021-07-14 11:54:33 AM,-0.420000,1626256362520,
2021-07-14 11:54:33 AM,-0.440000,1626256362523,
2021-07-14 11:54:33 AM,-0.460000,1626256362526,
2021-07-14 11:54:33 AM,-0.460000,1626256362530,
2021-07-14 11:54:33 AM,-0.450000,1626256362533,
2021-07-14 11:54:33 AM,-0.420000,1626256362536,
2021-07-14 11:54:33 AM,-0.380000,1626256362540,
2021-07-14 11:54:33 AM,-0.380000,1626256362543,
2021-07-14 11:54:33 AM,-0.370000,1626256362546,
2021-07-14 11:54:33 AM,-0.390000,1626256362550,
2021-07-14 11:54:33 AM,-0.410000,1626256362553,
2021-07-14 11:54:33 AM,-0.410000,1626256362556,
2021-07-14 11:54:33 AM,-0.400000,1626256362560,
2021-07-14 11:54:33 AM,-0.390000,1626256362563,
2021-07-14 11:54:33 AM,-0.340000,1626256362566,
2021-07-14 11:54:33 AM,-0.270000,1626256362570,
2021-07-14 11:54:33 AM,-0.210000,1626256362573,
2021-07-14 11:54:33 AM,-0.180000,1626256362576,
2021-07-14 11:54:33 AM,-0.180000,1626256362580,
2021-07-14 11:54:33 AM,-0.210000,1626256362583,
2021-07-14 11:54:33 AM,-0.230000,1626256362586,
2021-07-14 11:54:33 AM,-0.270000,1626256362590,
2021-07-14 11:54:33 AM,-0.280000,1626256362593,
2021-07-14 11:54:33 AM,-0.290000,1626256362596,
2021-07-14 11:54:33 AM,-0.310000,1626256362600,
2021-07-14 11:54:33 AM,-0.310000,1626256362603,
2021-07-14 11:54:33 AM,-0.290000,1626256362606,
2021-07-14 11:54:33 AM,-0.250000,1626256362610,
2021-07-14 11:54:33 AM,-0.190000,1626256362613,
2021-07-14 11:54:33 AM,-0.130000,1626256362616,
2021-07-14 11:54:33 AM,-0.060000,1626256362620,
2021-07-14 11:54:33 AM,-0.010000,1626256362623,
2021-07-14 11:54:33 AM,0.030000,1626256362626,
2021-07-14 11:54:33 AM,0.070000,1626256362630,
2021-07-14 11:54:33 AM,0.080000,1626256362633,
2021-07-14 11:54:33 AM,0.070000,1626256362636,
2021-07-14 11:54:33 AM,0.050000,1626256362640,
2021-07-14 11:54:33 AM,0.010000,1626256362643,
2021-07-14 11:54:33 AM,-0.030000,1626256362646,
2021-07-14 11:54:33 AM,-0.070000,1626256362650,
2021-07-14 11:54:33 AM,-0.080000,1626256362653,
2021-07-14 11:54:33 AM,-0.070000,1626256362656,
2021-07-14 11:54:33 AM,-0.050000,1626256362660,
2021-07-14 11:54:33 AM,-0.030000,1626256362663,
2021-07-14 11:54:33 AM,-0.020000,1626256362666,
2021-07-14 11:54:33 AM,0.000000,1626256362670,
2021-07-14 11:54:33 AM,0.030000,1626256362673,
2021-07-14 11:54:33 AM,0.060000,1626256362676,
2021-07-14 11:54:33 AM,0.060000,1626256362680,
2021-07-14 11:54:33 AM,0.070000,1626256362683,
2021-07-14 11:54:33 AM,0.060000,1626256362686,
2021-07-14 11:54:33 AM,0.040000,1626256362690,
2021-07-14 11:54:33 AM,0.050000,1626256362693,
2021-07-14 11:54:33 AM,0.040000,1626256362696,
2021-07-14 11:54:33 AM,0.010000,1626256362700,
2021-07-14 11:54:33 AM,0.010000,1626256362703,
2021-07-14 11:54:33 AM,0.000000,1626256362706,
2021-07-14 11:54:33 AM,0.010000,1626256362710,
2021-07-14 11:54:33 AM,0.010000,1626256362713,
2021-07-14 11:54:33 AM,0.020000,1626256362716,
2021-07-14 11:54:33 AM,0.030000,1626256362720,
2021-07-14 11:54:33 AM,0.030000,1626256362723,
2021-07-14 11:54:33 AM,0.040000,1626256362726,
2021-07-14 11:54:33 AM,0.050000,1626256362730,
2021-07-14 11:54:33 AM,0.040000,1626256362733,
2021-07-14 11:54:33 AM,0.040000,1626256362736,
2021-07-14 11:54:33 AM,0.050000,1626256362740,
2021-07-14 11:54:33 AM,0.050000,1626256362743,
2021-07-14 11:54:33 AM,0.060000,1626256362746,
2021-07-14 11:54:33 AM,0.070000,1626256362750,
2021-07-14 11:54:33 AM,0.060000,1626256362753,
2021-07-14 11:54:33 AM,0.080000,1626256362756,
2021-07-14 11:54:33 AM,0.120000,1626256362760,
2021-07-14 11:54:33 AM,0.140000,1626256362763,
2021-07-14 11:54:33 AM,0.170000,1626256362766,
2021-07-14 11:54:33 AM,0.180000,1626256362770,
2021-07-14 11:54:33 AM,0.180000,1626256362773,
2021-07-14 11:54:33 AM,0.160000,1626256362776,
2021-07-14 11:54:33 AM,0.140000,1626256362780,
2021-07-14 11:54:33 AM,0.100000,1626256362783,
2021-07-14 11:54:33 AM,0.090000,1626256362786,
2021-07-14 11:54:33 AM,0.060000,1626256362790,
2021-07-14 11:54:33 AM,0.050000,1626256362793,
2021-07-14 11:54:33 AM,0.050000,1626256362796,
2021-07-14 11:54:33 AM,0.060000,1626256362800,
2021-07-14 11:54:33 AM,0.070000,1626256362803,
2021-07-14 11:54:33 AM,0.080000,1626256362806,
2021-07-14 11:54:33 AM,0.090000,1626256362810,
2021-07-14 11:54:33 AM,0.090000,1626256362813,
2021-07-14 11:54:33 AM,0.080000,1626256362816,
2021-07-14 11:54:33 AM,0.060000,1626256362820,
2021-07-14 11:54:33 AM,0.020000,1626256362823,
2021-07-14 11:54:33 AM,0.010000,1626256362826,
2021-07-14 11:54:33 AM,0.020000,1626256362830,
2021-07-14 11:54:33 AM,0.030000,1626256362833,
2021-07-14 11:54:33 AM,0.040000,1626256362836,
2021-07-14 11:54:33 AM,0.070000,1626256362840,
2021-07-14 11:54:33 AM,0.080000,1626256362843,
2021-07-14 11:54:33 AM,0.110000,1626256362846,
2021-07-14 11:54:33 AM,0.110000,1626256362850,
2021-07-14 11:54:33 AM,0.110000,1626256362853,
2021-07-14 11:54:33 AM,0.100000,1626256362856,
2021-07-14 11:54:33 AM,0.070000,1626256362860,
2021-07-14 11:54:33 AM,0.000000,1626256362863,
2021-07-14 11:54:33 AM,-0.080000,1626256362866,
2021-07-14 11:54:33 AM,-0.200000,1626256362870,
2021-07-14 11:54:33 AM,-0.310000,1626256362873,
2021-07-14 11:54:33 AM,-0.420000,1626256362876,
2021-07-14 11:54:33 AM,-0.500000,1626256362880,
2021-07-14 11:54:33 AM,-0.550000,1626256362883,
2021-07-14 11:54:33 AM,-0.560000,1626256362886,
2021-07-14 11:54:33 AM,-0.580000,1626256362890,
2021-07-14 11:54:33 AM,-0.600000,1626256362893,
2021-07-14 11:54:33 AM,-0.600000,1626256362896,
2021-07-14 11:54:33 AM,-0.570000,1626256362900,
2021-07-14 11:54:33 AM,-0.500000,1626256362903,
2021-07-14 11:54:33 AM,-0.410000,1626256362906,
2021-07-14 11:54:33 AM,-0.330000,1626256362910,
2021-07-14 11:54:33 AM,-0.250000,1626256362913,
2021-07-14 11:54:33 AM,-0.190000,1626256362916,
2021-07-14 11:54:33 AM,-0.160000,1626256362920,
2021-07-14 11:54:33 AM,-0.140000,1626256362923,
2021-07-14 11:54:33 AM,-0.120000,1626256362926,
2021-07-14 11:54:33 AM,-0.110000,1626256362930,
2021-07-14 11:54:33 AM,-0.080000,1626256362933,
2021-07-14 11:54:33 AM,-0.060000,1626256362936,
2021-07-14 11:54:33 AM,-0.050000,1626256362940,
2021-07-14 11:54:33 AM,-0.050000,1626256362943,
2021-07-14 11:54:33 AM,-0.060000,1626256362946,
2021-07-14 11:54:33 AM,-0.070000,1626256362950,
2021-07-14 11:54:33 AM,-0.050000,1626256362953,
2021-07-14 11:54:33 AM,-0.010000,1626256362956,
2021-07-14 11:54:33 AM,0.020000,1626256362960,
2021-07-14 11:54:33 AM,0.020000,1626256362963,
2021-07-14 11:54:33 AM,0.000000,1626256362966,
2021-07-14 11:54:33 AM,-0.020000,1626256362970,
2021-07-14 11:54:33 AM,-0.060000,1626256362973,
2021-07-14 11:54:33 AM,-0.100000,1626256362976,
2021-07-14 11:54:33 AM,-0.130000,1626256362980,
2021-07-14 11:54:33 AM,-0.130000,1626256362983,
2021-07-14 11:54:33 AM,-0.120000,1626256362986,
2021-07-14 11:54:33 AM,-0.040000,1626256362990,
2021-07-14 11:54:33 AM,0.170000,1626256362993,
2021-07-14 11:54:33 AM,0.590000,1626256362996,
2021-07-14 11:54:34 AM,1.230000,1626256363000,
2021-07-14 11:54:34 AM,1.950000,1626256363003,
2021-07-14 11:54:34 AM,2.630000,1626256363006,
2021-07-14 11:54:34 AM,3.120000,1626256363010,
2021-07-14 11:54:34 AM,3.240000,1626256363013,
2021-07-14 11:54:34 AM,2.790000,1626256363016,
2021-07-14 11:54:34 AM,1.480000,1626256363020,
2021-07-14 11:54:34 AM,-1.000000,1626256363023,
2021-07-14 11:54:34 AM,-4.680000,1626256363026,
2021-07-14 11:54:34 AM,-8.910000,1626256363030,
2021-07-14 11:54:34 AM,-12.640000,1626256363033,
2021-07-14 11:54:34 AM,-14.600000,1626256363036,
2021-07-14 11:54:34 AM,-14.270000,1626256363040,
2021-07-14 11:54:34 AM,-11.880000,1626256363043,
2021-07-14 11:54:34 AM,-8.330000,1626256363046,
2021-07-14 11:54:34 AM,-4.600000,1626256363050,
2021-07-14 11:54:34 AM,-1.360000,1626256363053,
2021-07-14 11:54:34 AM,1.050000,1626256363056,
2021-07-14 11:54:34 AM,2.610000,1626256363060,
2021-07-14 11:54:34 AM,3.400000,1626256363063,
2021-07-14 11:54:34 AM,3.590000,1626256363066,
2021-07-14 11:54:34 AM,3.340000,1626256363070,
2021-07-14 11:54:34 AM,2.790000,1626256363073,
2021-07-14 11:54:34 AM,2.130000,1626256363076,
2021-07-14 11:54:34 AM,1.490000,1626256363080,
2021-07-14 11:54:34 AM,0.970000,1626256363083,
2021-07-14 11:54:34 AM,0.620000,1626256363086,
2021-07-14 11:54:34 AM,0.400000,1626256363090,
2021-07-14 11:54:34 AM,0.260000,1626256363093,
2021-07-14 11:54:34 AM,0.170000,1626256363096,
2021-07-14 11:54:34 AM,0.100000,1626256363100,
2021-07-14 11:54:34 AM,0.040000,1626256363103,
2021-07-14 11:54:34 AM,-0.020000,1626256363106,
2021-07-14 11:54:34 AM,-0.080000,1626256363110,
2021-07-14 11:54:34 AM,-0.130000,1626256363113,
2021-07-14 11:54:34 AM,-0.180000,1626256363116,
2021-07-14 11:54:34 AM,-0.230000,1626256363120,
2021-07-14 11:54:34 AM,-0.270000,1626256363123,
2021-07-14 11:54:34 AM,-0.300000,1626256363126,
2021-07-14 11:54:34 AM,-0.320000,1626256363130,
2021-07-14 11:54:34 AM,-0.330000,1626256363133,
2021-07-14 11:54:34 AM,-0.300000,1626256363136,
2021-07-14 11:54:34 AM,-0.270000,1626256363140,
2021-07-14 11:54:34 AM,-0.250000,1626256363143,
2021-07-14 11:54:34 AM,-0.240000,1626256363146,
2021-07-14 11:54:34 AM,-0.250000,1626256363150,
2021-07-14 11:54:34 AM,-0.250000,1626256363153,
2021-07-14 11:54:34 AM,-0.270000,1626256363156,
2021-07-14 11:54:34 AM,-0.300000,1626256363160,
2021-07-14 11:54:34 AM,-0.320000,1626256363163,
2021-07-14 11:54:34 AM,-0.340000,1626256363166,
2021-07-14 11:54:34 AM,-0.360000,1626256363170,
2021-07-14 11:54:34 AM,-0.380000,1626256363173,
2021-07-14 11:54:34 AM,-0.420000,1626256363176,
2021-07-14 11:54:34 AM,-0.430000,1626256363180,
2021-07-14 11:54:34 AM,-0.440000,1626256363183,
2021-07-14 11:54:34 AM,-0.450000,1626256363186,
2021-07-14 11:54:34 AM,-0.460000,1626256363190,
2021-07-14 11:54:34 AM,-0.470000,1626256363193,
2021-07-14 11:54:34 AM,-0.490000,1626256363196,
2021-07-14 11:54:34 AM,-0.510000,1626256363200,
2021-07-14 11:54:34 AM,-0.540000,1626256363203,
2021-07-14 11:54:34 AM,-0.560000,1626256363206,
2021-07-14 11:54:34 AM,-0.580000,1626256363210,
2021-07-14 11:54:34 AM,-0.600000,1626256363213,
2021-07-14 11:54:34 AM,-0.620000,1626256363216,
2021-07-14 11:54:34 AM,-0.640000,1626256363220,
2021-07-14 11:54:34 AM,-0.650000,1626256363223,
2021-07-14 11:54:34 AM,-0.650000,1626256363226,
2021-07-14 11:54:34 AM,-0.640000,1626256363230,
2021-07-14 11:54:34 AM,-0.660000,1626256363233,
2021-07-14 11:54:34 AM,-0.670000,1626256363236,
2021-07-14 11:54:34 AM,-0.680000,1626256363240,
2021-07-14 11:54:34 AM,-0.690000,1626256363243,
2021-07-14 11:54:34 AM,-0.680000,1626256363246,
2021-07-14 11:54:34 AM,-0.660000,1626256363250,
2021-07-14 11:54:34 AM,-0.650000,1626256363253,
2021-07-14 11:54:34 AM,-0.640000,1626256363256,
2021-07-14 11:54:34 AM,-0.650000,1626256363260,
2021-07-14 11:54:34 AM,-0.680000,1626256363263,
2021-07-14 11:54:34 AM,-0.700000,1626256363266,
2021-07-14 11:54:34 AM,-0.720000,1626256363270,
2021-07-14 11:54:34 AM,-0.740000,1626256363273,
2021-07-14 11:54:34 AM,-0.750000,1626256363276,
2021-07-14 11:54:34 AM,-0.770000,1626256363280,
2021-07-14 11:54:34 AM,-0.770000,1626256363283,
2021-07-14 11:54:34 AM,-0.800000,1626256363286,
2021-07-14 11:54:34 AM,-0.830000,1626256363290,
2021-07-14 11:54:34 AM,-0.880000,1626256363293,
2021-07-14 11:54:34 AM,-0.940000,1626256363296,
2021-07-14 11:54:34 AM,-1.010000,1626256363300,
2021-07-14 11:54:34 AM,-1.070000,1626256363303,
2021-07-14 11:54:34 AM,-1.130000,1626256363306,
2021-07-14 11:54:34 AM,-1.200000,1626256363310,
2021-07-14 11:54:34 AM,-1.270000,1626256363313,
2021-07-14 11:54:34 AM,-1.370000,1626256363316,
2021-07-14 11:54:34 AM,-1.460000,1626256363320,
2021-07-14 11:54:34 AM,-1.540000,1626256363323,
2021-07-14 11:54:34 AM,-1.590000,1626256363326,
2021-07-14 11:54:34 AM,-1.600000,1626256363330,
2021-07-14 11:54:34 AM,-1.610000,1626256363333,
2021-07-14 11:54:34 AM,-1.580000,1626256363336,
2021-07-14 11:54:34 AM,-1.540000,1626256363340,
2021-07-14 11:54:34 AM,-1.490000,1626256363343,
2021-07-14 11:54:34 AM,-1.420000,1626256363346,
2021-07-14 11:54:34 AM,-1.330000,1626256363350,
2021-07-14 11:54:34 AM,-1.240000,1626256363353,
2021-07-14 11:54:34 AM,-1.160000,1626256363356,
2021-07-14 11:54:34 AM,-1.080000,1626256363360,
2021-07-14 11:54:34 AM,-1.000000,1626256363363,
2021-07-14 11:54:34 AM,-0.910000,1626256363366,
2021-07-14 11:54:34 AM,-0.810000,1626256363370,
2021-07-14 11:54:34 AM,-0.710000,1626256363373,
2021-07-14 11:54:34 AM,-0.630000,1626256363376,
2021-07-14 11:54:34 AM,-0.570000,1626256363380,
2021-07-14 11:54:34 AM,-0.530000,1626256363383,
2021-07-14 11:54:34 AM,-0.510000,1626256363386,
2021-07-14 11:54:34 AM,-0.500000,1626256363390,
2021-07-14 11:54:34 AM,-0.500000,1626256363393,
2021-07-14 11:54:34 AM,-0.490000,1626256363396,
2021-07-14 11:54:34 AM,-0.460000,1626256363400,
2021-07-14 11:54:34 AM,-0.440000,1626256363403,
2021-07-14 11:54:34 AM,-0.430000,1626256363406,
2021-07-14 11:54:34 AM,-0.400000,1626256363410,
2021-07-14 11:54:34 AM,-0.420000,1626256363413,
2021-07-14 11:54:34 AM,-0.390000,1626256363416,
2021-07-14 11:54:34 AM,-0.380000,1626256363420,
2021-07-14 11:54:34 AM,-0.330000,1626256363423,
2021-07-14 11:54:34 AM,-0.280000,1626256363426,
2021-07-14 11:54:34 AM,-0.250000,1626256363430,
2021-07-14 11:54:34 AM,-0.250000,1626256363433,
2021-07-14 11:54:34 AM,-0.250000,1626256363436,
2021-07-14 11:54:34 AM,-0.250000,1626256363440,
2021-07-14 11:54:34 AM,-0.260000,1626256363443,
2021-07-14 11:54:34 AM,-0.280000,1626256363446,
2021-07-14 11:54:34 AM,-0.300000,1626256363450,
2021-07-14 11:54:34 AM,-0.350000,1626256363453,
2021-07-14 11:54:34 AM,-0.400000,1626256363456,
2021-07-14 11:54:34 AM,-0.450000,1626256363460,
2021-07-14 11:54:34 AM,-0.470000,1626256363463,
2021-07-14 11:54:34 AM,-0.450000,1626256363466,
2021-07-14 11:54:34 AM,-0.410000,1626256363470,
2021-07-14 11:54:34 AM,-0.400000,1626256363473,
2021-07-14 11:54:34 AM,-0.400000,1626256363476,
2021-07-14 11:54:34 AM,-0.440000,1626256363480,
2021-07-14 11:54:34 AM,-0.490000,1626256363483,
2021-07-14 11:54:34 AM,-0.520000,1626256363486,
2021-07-14 11:54:34 AM,-0.530000,1626256363490,
2021-07-14 11:54:34 AM,-0.510000,1626256363493,
2021-07-14 11:54:34 AM,-0.480000,1626256363496,
2021-07-14 11:54:34 AM,-0.440000,1626256363500,
2021-07-14 11:54:34 AM,-0.430000,1626256363503,
2021-07-14 11:54:34 AM,-0.420000,1626256363506,
2021-07-14 11:54:34 AM,-0.410000,1626256363510,
2021-07-14 11:54:34 AM,-0.400000,1626256363513,
2021-07-14 11:54:34 AM,-0.380000,1626256363516,
2021-07-14 11:54:34 AM,-0.370000,1626256363520,
2021-07-14 11:54:34 AM,-0.350000,1626256363523,
2021-07-14 11:54:34 AM,-0.330000,1626256363526,
2021-07-14 11:54:34 AM,-0.310000,1626256363530,
2021-07-14 11:54:34 AM,-0.290000,1626256363533,
2021-07-14 11:54:34 AM,-0.260000,1626256363536,
2021-07-14 11:54:34 AM,-0.250000,1626256363540,
2021-07-14 11:54:34 AM,-0.240000,1626256363543,
2021-07-14 11:54:34 AM,-0.220000,1626256363546,
2021-07-14 11:54:34 AM,-0.200000,1626256363550,
2021-07-14 11:54:34 AM,-0.180000,1626256363553,
2021-07-14 11:54:34 AM,-0.150000,1626256363556,
2021-07-14 11:54:34 AM,-0.140000,1626256363560,
2021-07-14 11:54:34 AM,-0.130000,1626256363563,
2021-07-14 11:54:34 AM,-0.110000,1626256363566,
2021-07-14 11:54:34 AM,-0.110000,1626256363570,
2021-07-14 11:54:34 AM,-0.110000,1626256363573,
2021-07-14 11:54:34 AM,-0.090000,1626256363576,
2021-07-14 11:54:34 AM,-0.080000,1626256363580,
2021-07-14 11:54:34 AM,-0.060000,1626256363583,
2021-07-14 11:54:34 AM,-0.050000,1626256363586,
2021-07-14 11:54:34 AM,-0.050000,1626256363590,
2021-07-14 11:54:34 AM,-0.040000,1626256363593,
2021-07-14 11:54:34 AM,-0.040000,1626256363596,
2021-07-14 11:54:34 AM,-0.040000,1626256363600,
2021-07-14 11:54:34 AM,-0.030000,1626256363603,
2021-07-14 11:54:34 AM,-0.010000,1626256363606,
2021-07-14 11:54:34 AM,0.000000,1626256363610,
2021-07-14 11:54:34 AM,0.030000,1626256363613,
2021-07-14 11:54:34 AM,0.060000,1626256363616,
2021-07-14 11:54:34 AM,0.060000,1626256363620,
2021-07-14 11:54:34 AM,0.070000,1626256363623,
2021-07-14 11:54:34 AM,0.070000,1626256363626,
2021-07-14 11:54:34 AM,0.090000,1626256363630,
2021-07-14 11:54:34 AM,0.100000,1626256363633,
2021-07-14 11:54:34 AM,0.110000,1626256363636,
2021-07-14 11:54:34 AM,0.120000,1626256363640,
2021-07-14 11:54:34 AM,0.140000,1626256363643,
2021-07-14 11:54:34 AM,0.150000,1626256363646,
2021-07-14 11:54:34 AM,0.150000,1626256363650,
2021-07-14 11:54:34 AM,0.120000,1626256363653,
2021-07-14 11:54:34 AM,0.100000,1626256363656,
2021-07-14 11:54:34 AM,0.080000,1626256363660,
2021-07-14 11:54:34 AM,0.080000,1626256363663,
2021-07-14 11:54:34 AM,0.080000,1626256363666,
2021-07-14 11:54:34 AM,0.090000,1626256363670,
2021-07-14 11:54:34 AM,0.080000,1626256363673,
2021-07-14 11:54:34 AM,0.060000,1626256363676,
2021-07-14 11:54:34 AM,0.050000,1626256363680,
2021-07-14 11:54:34 AM,0.040000,1626256363683,
2021-07-14 11:54:34 AM,0.050000,1626256363686,
2021-07-14 11:54:34 AM,0.080000,1626256363690,
2021-07-14 11:54:34 AM,0.130000,1626256363693,
2021-07-14 11:54:34 AM,0.170000,1626256363696,
2021-07-14 11:54:34 AM,0.190000,1626256363700,
2021-07-14 11:54:34 AM,0.210000,1626256363703,
2021-07-14 11:54:34 AM,0.230000,1626256363706,
2021-07-14 11:54:34 AM,0.240000,1626256363710,
2021-07-14 11:54:34 AM,0.230000,1626256363713,
2021-07-14 11:54:34 AM,0.200000,1626256363716,
2021-07-14 11:54:34 AM,0.190000,1626256363720,
2021-07-14 11:54:34 AM,0.160000,1626256363723,
2021-07-14 11:54:34 AM,0.170000,1626256363726,
2021-07-14 11:54:34 AM,0.200000,1626256363730,
2021-07-14 11:54:34 AM,0.220000,1626256363733,
2021-07-14 11:54:34 AM,0.230000,1626256363736,
2021-07-14 11:54:34 AM,0.220000,1626256363740,
2021-07-14 11:54:34 AM,0.210000,1626256363743,
2021-07-14 11:54:34 AM,0.160000,1626256363746,
2021-07-14 11:54:34 AM,0.120000,1626256363750,
2021-07-14 11:54:34 AM,0.080000,1626256363753,
2021-07-14 11:54:34 AM,0.050000,1626256363756,
2021-07-14 11:54:34 AM,0.040000,1626256363760,
2021-07-14 11:54:34 AM,0.040000,1626256363763,
2021-07-14 11:54:34 AM,0.050000,1626256363766,
2021-07-14 11:54:34 AM,0.080000,1626256363770,
2021-07-14 11:54:34 AM,0.100000,1626256363773,
2021-07-14 11:54:34 AM,0.130000,1626256363776,
2021-07-14 11:54:34 AM,0.160000,1626256363780,
2021-07-14 11:54:34 AM,0.160000,1626256363783,
2021-07-14 11:54:34 AM,0.160000,1626256363786,
2021-07-14 11:54:34 AM,0.150000,1626256363790,
2021-07-14 11:54:34 AM,0.130000,1626256363793,
2021-07-14 11:54:34 AM,0.120000,1626256363796,
2021-07-14 11:54:34 AM,0.130000,1626256363800,
2021-07-14 11:54:34 AM,0.110000,1626256363803,
2021-07-14 11:54:34 AM,0.120000,1626256363806,
2021-07-14 11:54:34 AM,0.120000,1626256363810,
2021-07-14 11:54:34 AM,0.120000,1626256363813,
2021-07-14 11:54:34 AM,0.110000,1626256363816,
2021-07-14 11:54:34 AM,0.120000,1626256363820,
2021-07-14 11:54:34 AM,0.100000,1626256363823,
2021-07-14 11:54:34 AM,0.080000,1626256363826,
2021-07-14 11:54:34 AM,0.070000,1626256363830,
2021-07-14 11:54:34 AM,0.070000,1626256363833,
2021-07-14 11:54:34 AM,0.090000,1626256363836,
2021-07-14 11:54:34 AM,0.120000,1626256363840,
2021-07-14 11:54:34 AM,0.140000,1626256363843,
2021-07-14 11:54:34 AM,0.210000,1626256363846,
2021-07-14 11:54:34 AM,0.250000,1626256363850,
2021-07-14 11:54:34 AM,0.260000,1626256363853,
2021-07-14 11:54:34 AM,0.260000,1626256363856,
2021-07-14 11:54:34 AM,0.230000,1626256363860,
2021-07-14 11:54:34 AM,0.190000,1626256363863,
2021-07-14 11:54:34 AM,0.160000,1626256363866,
2021-07-14 11:54:34 AM,0.140000,1626256363870,
2021-07-14 11:54:34 AM,0.130000,1626256363873,
2021-07-14 11:54:34 AM,0.140000,1626256363876,
2021-07-14 11:54:34 AM,0.140000,1626256363880,
2021-07-14 11:54:34 AM,0.170000,1626256363883,
2021-07-14 11:54:34 AM,0.190000,1626256363886,
2021-07-14 11:54:34 AM,0.210000,1626256363890,
2021-07-14 11:54:34 AM,0.200000,1626256363893,
2021-07-14 11:54:34 AM,0.160000,1626256363896,
2021-07-14 11:54:34 AM,0.110000,1626256363900,
2021-07-14 11:54:34 AM,0.070000,1626256363903,
2021-07-14 11:54:34 AM,0.050000,1626256363906,
2021-07-14 11:54:34 AM,0.060000,1626256363910,
2021-07-14 11:54:34 AM,0.080000,1626256363913,
2021-07-14 11:54:34 AM,0.100000,1626256363916,
2021-07-14 11:54:34 AM,0.100000,1626256363920,
2021-07-14 11:54:34 AM,0.120000,1626256363923,
2021-07-14 11:54:34 AM,0.140000,1626256363926,
2021-07-14 11:54:34 AM,0.150000,1626256363930,
2021-07-14 11:54:34 AM,0.180000,1626256363933,
2021-07-14 11:54:34 AM,0.200000,1626256363936,
2021-07-14 11:54:34 AM,0.190000,1626256363940,
2021-07-14 11:54:34 AM,0.200000,1626256363943,
2021-07-14 11:54:34 AM,0.190000,1626256363946,
2021-07-14 11:54:34 AM,0.170000,1626256363950,
2021-07-14 11:54:34 AM,0.140000,1626256363953,
2021-07-14 11:54:34 AM,0.100000,1626256363956,
2021-07-14 11:54:34 AM,0.050000,1626256363960,
2021-07-14 11:54:34 AM,0.000000,1626256363963,
2021-07-14 11:54:34 AM,-0.040000,1626256363966,
2021-07-14 11:54:34 AM,-0.060000,1626256363970,
2021-07-14 11:54:34 AM,-0.090000,1626256363973,
2021-07-14 11:54:34 AM,-0.090000,1626256363976,
2021-07-14 11:54:34 AM,-0.100000,1626256363980,
2021-07-14 11:54:34 AM,-0.120000,1626256363983,
2021-07-14 11:54:34 AM,-0.160000,1626256363986,
2021-07-14 11:54:34 AM,-0.230000,1626256363990,
2021-07-14 11:54:34 AM,-0.320000,1626256363993,
2021-07-14 11:54:34 AM,-0.400000,1626256363996,
2021-07-14 11:54:35 AM,-0.490000,1626256364000,
2021-07-14 11:54:35 AM,-0.580000,1626256364003,
2021-07-14 11:54:35 AM,-0.660000,1626256364006,
2021-07-14 11:54:35 AM,-0.750000,1626256364010,
2021-07-14 11:54:35 AM,-0.790000,1626256364013,
2021-07-14 11:54:35 AM,-0.790000,1626256364016,
2021-07-14 11:54:35 AM,-0.780000,1626256364020,
2021-07-14 11:54:35 AM,-0.740000,1626256364023,
2021-07-14 11:54:35 AM,-0.700000,1626256364026,
2021-07-14 11:54:35 AM,-0.620000,1626256364030,
2021-07-14 11:54:35 AM,-0.530000,1626256364033,
2021-07-14 11:54:35 AM,-0.400000,1626256364036,
2021-07-14 11:54:35 AM,-0.290000,1626256364040,
2021-07-14 11:54:35 AM,-0.190000,1626256364043,
2021-07-14 11:54:35 AM,-0.110000,1626256364046,
2021-07-14 11:54:35 AM,-0.040000,1626256364050,
2021-07-14 11:54:35 AM,0.000000,1626256364053,
2021-07-14 11:54:35 AM,0.010000,1626256364056,
2021-07-14 11:54:35 AM,0.030000,1626256364060,
2021-07-14 11:54:35 AM,0.040000,1626256364063,
2021-07-14 11:54:35 AM,0.070000,1626256364066,
2021-07-14 11:54:35 AM,0.110000,1626256364070,
2021-07-14 11:54:35 AM,0.140000,1626256364073,
2021-07-14 11:54:35 AM,0.160000,1626256364076,
2021-07-14 11:54:35 AM,0.150000,1626256364080,
2021-07-14 11:54:35 AM,0.140000,1626256364083,
2021-07-14 11:54:35 AM,0.110000,1626256364086,
2021-07-14 11:54:35 AM,0.070000,1626256364090,
2021-07-14 11:54:35 AM,0.040000,1626256364093,
2021-07-14 11:54:35 AM,0.020000,1626256364096,
2021-07-14 11:54:35 AM,0.020000,1626256364100,
2021-07-14 11:54:35 AM,0.020000,1626256364103,
2021-07-14 11:54:35 AM,0.040000,1626256364106,
2021-07-14 11:54:35 AM,0.090000,1626256364110,
2021-07-14 11:54:35 AM,0.120000,1626256364113,
2021-07-14 11:54:35 AM,0.170000,1626256364116,
2021-07-14 11:54:35 AM,0.230000,1626256364120,
2021-07-14 11:54:35 AM,0.350000,1626256364123,
2021-07-14 11:54:35 AM,0.640000,1626256364126,
2021-07-14 11:54:35 AM,1.120000,1626256364130,
2021-07-14 11:54:35 AM,1.730000,1626256364133,
2021-07-14 11:54:35 AM,2.330000,1626256364136,
2021-07-14 11:54:35 AM,2.800000,1626256364140,
2021-07-14 11:54:35 AM,3.000000,1626256364143,
2021-07-14 11:54:35 AM,2.760000,1626256364146,
2021-07-14 11:54:35 AM,1.840000,1626256364150,
2021-07-14 11:54:35 AM,-0.110000,1626256364153,
2021-07-14 11:54:35 AM,-3.220000,1626256364156,
2021-07-14 11:54:35 AM,-7.060000,1626256364160,
2021-07-14 11:54:35 AM,-10.770000,1626256364163,
2021-07-14 11:54:35 AM,-13.140000,1626256364166,
2021-07-14 11:54:35 AM,-13.430000,1626256364170,
2021-07-14 11:54:35 AM,-11.620000,1626256364173,
2021-07-14 11:54:35 AM,-8.470000,1626256364176,
2021-07-14 11:54:35 AM,-4.940000,1626256364180,
2021-07-14 11:54:35 AM,-1.790000,1626256364183,
2021-07-14 11:54:35 AM,0.650000,1626256364186,
2021-07-14 11:54:35 AM,2.320000,1626256364190,
2021-07-14 11:54:35 AM,3.290000,1626256364193,
2021-07-14 11:54:35 AM,3.720000,1626256364196,
2021-07-14 11:54:35 AM,3.720000,1626256364200,
2021-07-14 11:54:35 AM,3.390000,1626256364203,
2021-07-14 11:54:35 AM,2.850000,1626256364206,
2021-07-14 11:54:35 AM,2.230000,1626256364210,
2021-07-14 11:54:35 AM,1.650000,1626256364213,
2021-07-14 11:54:35 AM,1.150000,1626256364216,
2021-07-14 11:54:35 AM,0.770000,1626256364220,
2021-07-14 11:54:35 AM,0.520000,1626256364223,
2021-07-14 11:54:35 AM,0.350000,1626256364226,
2021-07-14 11:54:35 AM,0.250000,1626256364230,
2021-07-14 11:54:35 AM,0.180000,1626256364233,
2021-07-14 11:54:35 AM,0.130000,1626256364236,
2021-07-14 11:54:35 AM,0.090000,1626256364240,
2021-07-14 11:54:35 AM,0.030000,1626256364243,
2021-07-14 11:54:35 AM,-0.030000,1626256364246,
2021-07-14 11:54:35 AM,-0.080000,1626256364250,
2021-07-14 11:54:35 AM,-0.140000,1626256364253,
2021-07-14 11:54:35 AM,-0.190000,1626256364256,
2021-07-14 11:54:35 AM,-0.200000,1626256364260,
2021-07-14 11:54:35 AM,-0.220000,1626256364263,
2021-07-14 11:54:35 AM,-0.210000,1626256364266,
2021-07-14 11:54:35 AM,-0.220000,1626256364270,
2021-07-14 11:54:35 AM,-0.220000,1626256364273,
2021-07-14 11:54:35 AM,-0.220000,1626256364276,
2021-07-14 11:54:35 AM,-0.200000,1626256364280,
2021-07-14 11:54:35 AM,-0.200000,1626256364283,
2021-07-14 11:54:35 AM,-0.220000,1626256364286,
2021-07-14 11:54:35 AM,-0.220000,1626256364290,
2021-07-14 11:54:35 AM,-0.230000,1626256364293,
2021-07-14 11:54:35 AM,-0.260000,1626256364296,
2021-07-14 11:54:35 AM,-0.280000,1626256364300,
2021-07-14 11:54:35 AM,-0.330000,1626256364303,
2021-07-14 11:54:35 AM,-0.360000,1626256364306,
2021-07-14 11:54:35 AM,-0.410000,1626256364310,
2021-07-14 11:54:35 AM,-0.450000,1626256364313,
2021-07-14 11:54:35 AM,-0.470000,1626256364316,
2021-07-14 11:54:35 AM,-0.490000,1626256364320,
2021-07-14 11:54:35 AM,-0.500000,1626256364323,
2021-07-14 11:54:35 AM,-0.510000,1626256364326,
2021-07-14 11:54:35 AM,-0.540000,1626256364330,
2021-07-14 11:54:35 AM,-0.560000,1626256364333,
2021-07-14 11:54:35 AM,-0.580000,1626256364336,
2021-07-14 11:54:35 AM,-0.580000,1626256364340,
2021-07-14 11:54:35 AM,-0.590000,1626256364343,
2021-07-14 11:54:35 AM,-0.580000,1626256364346,
2021-07-14 11:54:35 AM,-0.590000,1626256364350,
2021-07-14 11:54:35 AM,-0.590000,1626256364353,
2021-07-14 11:54:35 AM,-0.590000,1626256364356,
2021-07-14 11:54:35 AM,-0.590000,1626256364360,
2021-07-14 11:54:35 AM,-0.600000,1626256364363,
2021-07-14 11:54:35 AM,-0.620000,1626256364366,
2021-07-14 11:54:35 AM,-0.640000,1626256364370,
2021-07-14 11:54:35 AM,-0.660000,1626256364373,
2021-07-14 11:54:35 AM,-0.670000,1626256364376,
2021-07-14 11:54:35 AM,-0.680000,1626256364380,
2021-07-14 11:54:35 AM,-0.690000,1626256364383,
2021-07-14 11:54:35 AM,-0.680000,1626256364386,
2021-07-14 11:54:35 AM,-0.700000,1626256364390,
2021-07-14 11:54:35 AM,-0.700000,1626256364393,
2021-07-14 11:54:35 AM,-0.700000,1626256364396,
2021-07-14 11:54:35 AM,-0.690000,1626256364400,
2021-07-14 11:54:35 AM,-0.700000,1626256364403,
2021-07-14 11:54:35 AM,-0.730000,1626256364406,
2021-07-14 11:54:35 AM,-0.760000,1626256364410,
2021-07-14 11:54:35 AM,-0.800000,1626256364413,
2021-07-14 11:54:35 AM,-0.840000,1626256364416,
2021-07-14 11:54:35 AM,-0.900000,1626256364420,
2021-07-14 11:54:35 AM,-0.960000,1626256364423,
2021-07-14 11:54:35 AM,-1.010000,1626256364426,
2021-07-14 11:54:35 AM,-1.080000,1626256364430,
2021-07-14 11:54:35 AM,-1.130000,1626256364433,
2021-07-14 11:54:35 AM,-1.180000,1626256364436,
2021-07-14 11:54:35 AM,-1.230000,1626256364440,
2021-07-14 11:54:35 AM,-1.300000,1626256364443,
2021-07-14 11:54:35 AM,-1.370000,1626256364446,
2021-07-14 11:54:35 AM,-1.440000,1626256364450,
2021-07-14 11:54:35 AM,-1.500000,1626256364453,
2021-07-14 11:54:35 AM,-1.550000,1626256364456,
2021-07-14 11:54:35 AM,-1.580000,1626256364460,
2021-07-14 11:54:35 AM,-1.600000,1626256364463,
2021-07-14 11:54:35 AM,-1.610000,1626256364466,
2021-07-14 11:54:35 AM,-1.620000,1626256364470,
2021-07-14 11:54:35 AM,-1.600000,1626256364473,
2021-07-14 11:54:35 AM,-1.550000,1626256364476,
2021-07-14 11:54:35 AM,-1.480000,1626256364480,
2021-07-14 11:54:35 AM,-1.420000,1626256364483,
2021-07-14 11:54:35 AM,-1.340000,1626256364486,
2021-07-14 11:54:35 AM,-1.260000,1626256364490,
2021-07-14 11:54:35 AM,-1.170000,1626256364493,
2021-07-14 11:54:35 AM,-1.090000,1626256364496,
2021-07-14 11:54:35 AM,-1.010000,1626256364500,
2021-07-14 11:54:35 AM,-0.930000,1626256364503,
2021-07-14 11:54:35 AM,-0.850000,1626256364506,
2021-07-14 11:54:35 AM,-0.780000,1626256364510,
2021-07-14 11:54:35 AM,-0.700000,1626256364513,
2021-07-14 11:54:35 AM,-0.640000,1626256364516,
2021-07-14 11:54:35 AM,-0.600000,1626256364520,
2021-07-14 11:54:35 AM,-0.550000,1626256364523,
2021-07-14 11:54:35 AM,-0.530000,1626256364526,
2021-07-14 11:54:35 AM,-0.490000,1626256364530,
2021-07-14 11:54:35 AM,-0.430000,1626256364533,
2021-07-14 11:54:35 AM,-0.360000,1626256364536,
2021-07-14 11:54:35 AM,-0.310000,1626256364540,
2021-07-14 11:54:35 AM,-0.300000,1626256364543,
2021-07-14 11:54:35 AM,-0.330000,1626256364546,
2021-07-14 11:54:35 AM,-0.360000,1626256364550,
2021-07-14 11:54:35 AM,-0.380000,1626256364553,
2021-07-14 11:54:35 AM,-0.400000,1626256364556,
2021-07-14 11:54:35 AM,-0.410000,1626256364560,
2021-07-14 11:54:35 AM,-0.410000,1626256364563,
2021-07-14 11:54:35 AM,-0.400000,1626256364566,
2021-07-14 11:54:35 AM,-0.400000,1626256364570,
2021-07-14 11:54:35 AM,-0.400000,1626256364573,
2021-07-14 11:54:35 AM,-0.410000,1626256364576,
2021-07-14 11:54:35 AM,-0.440000,1626256364580,
2021-07-14 11:54:35 AM,-0.460000,1626256364583,
2021-07-14 11:54:35 AM,-0.500000,1626256364586,
2021-07-14 11:54:35 AM,-0.510000,1626256364590,
2021-07-14 11:54:35 AM,-0.540000,1626256364593,
2021-07-14 11:54:35 AM,-0.530000,1626256364596,
2021-07-14 11:54:35 AM,-0.530000,1626256364600,
2021-07-14 11:54:35 AM,-0.530000,1626256364603,
2021-07-14 11:54:35 AM,-0.540000,1626256364606,
2021-07-14 11:54:35 AM,-0.560000,1626256364610,
2021-07-14 11:54:35 AM,-0.570000,1626256364613,
2021-07-14 11:54:35 AM,-0.560000,1626256364616,
2021-07-14 11:54:35 AM,-0.520000,1626256364620,
2021-07-14 11:54:35 AM,-0.460000,1626256364623,
2021-07-14 11:54:35 AM,-0.420000,1626256364626,
2021-07-14 11:54:35 AM,-0.400000,1626256364630,
2021-07-14 11:54:35 AM,-0.410000,1626256364633,
2021-07-14 11:54:35 AM,-0.420000,1626256364636,
2021-07-14 11:54:35 AM,-0.420000,1626256364640,
2021-07-14 11:54:35 AM,-0.430000,1626256364643,
2021-07-14 11:54:35 AM,-0.410000,1626256364646,
2021-07-14 11:54:35 AM,-0.390000,1626256364650,
2021-07-14 11:54:35 AM,-0.370000,1626256364653,
2021-07-14 11:54:35 AM,-0.360000,1626256364656,
2021-07-14 11:54:35 AM,-0.330000,1626256364660,
2021-07-14 11:54:35 AM,-0.320000,1626256364663,
2021-07-14 11:54:35 AM,-0.300000,1626256364666,
2021-07-14 11:54:35 AM,-0.290000,1626256364670,
2021-07-14 11:54:35 AM,-0.270000,1626256364673,
2021-07-14 11:54:35 AM,-0.250000,1626256364676,
2021-07-14 11:54:35 AM,-0.230000,1626256364680,
2021-07-14 11:54:35 AM,-0.200000,1626256364683,
2021-07-14 11:54:35 AM,-0.180000,1626256364686,
2021-07-14 11:54:35 AM,-0.170000,1626256364690,
2021-07-14 11:54:35 AM,-0.160000,1626256364693,
2021-07-14 11:54:35 AM,-0.150000,1626256364696,
2021-07-14 11:54:35 AM,-0.120000,1626256364700,
2021-07-14 11:54:35 AM,-0.110000,1626256364703,
2021-07-14 11:54:35 AM,-0.090000,1626256364706,
2021-07-14 11:54:35 AM,-0.090000,1626256364710,
2021-07-14 11:54:35 AM,-0.090000,1626256364713,
2021-07-14 11:54:35 AM,-0.100000,1626256364716,
2021-07-14 11:54:35 AM,-0.110000,1626256364720,
2021-07-14 11:54:35 AM,-0.110000,1626256364723,
2021-07-14 11:54:35 AM,-0.100000,1626256364726,
2021-07-14 11:54:35 AM,-0.100000,1626256364730,
2021-07-14 11:54:35 AM,-0.110000,1626256364733,
2021-07-14 11:54:35 AM,-0.100000,1626256364736,
2021-07-14 11:54:35 AM,-0.100000,1626256364740,
2021-07-14 11:54:35 AM,-0.090000,1626256364743,
2021-07-14 11:54:35 AM,-0.070000,1626256364746,
2021-07-14 11:54:35 AM,-0.050000,1626256364750,
2021-07-14 11:54:35 AM,-0.030000,1626256364753,
2021-07-14 11:54:35 AM,0.000000,1626256364756,
2021-07-14 11:54:35 AM,0.030000,1626256364760,
2021-07-14 11:54:35 AM,0.040000,1626256364763,
2021-07-14 11:54:35 AM,0.020000,1626256364766,
2021-07-14 11:54:35 AM,-0.010000,1626256364770,
2021-07-14 11:54:35 AM,-0.070000,1626256364773,
2021-07-14 11:54:35 AM,-0.120000,1626256364776,
2021-07-14 11:54:35 AM,-0.170000,1626256364780,
2021-07-14 11:54:35 AM,-0.200000,1626256364783,
2021-07-14 11:54:35 AM,-0.210000,1626256364786,
2021-07-14 11:54:35 AM,-0.220000,1626256364790,
2021-07-14 11:54:35 AM,-0.210000,1626256364793,
2021-07-14 11:54:35 AM,-0.210000,1626256364796,
2021-07-14 11:54:35 AM,-0.210000,1626256364800,
2021-07-14 11:54:35 AM,-0.220000,1626256364803,
2021-07-14 11:54:35 AM,-0.240000,1626256364806,
2021-07-14 11:54:35 AM,-0.260000,1626256364810,
2021-07-14 11:54:35 AM,-0.280000,1626256364813,
2021-07-14 11:54:35 AM,-0.260000,1626256364816,
2021-07-14 11:54:35 AM,-0.260000,1626256364820,
2021-07-14 11:54:35 AM,-0.240000,1626256364823,
2021-07-14 11:54:35 AM,-0.220000,1626256364826,
2021-07-14 11:54:35 AM,-0.190000,1626256364830,
2021-07-14 11:54:35 AM,-0.170000,1626256364833,
2021-07-14 11:54:35 AM,-0.160000,1626256364836,
2021-07-14 11:54:35 AM,-0.160000,1626256364840,
2021-07-14 11:54:35 AM,-0.140000,1626256364843,
2021-07-14 11:54:35 AM,-0.130000,1626256364846,
2021-07-14 11:54:35 AM,-0.120000,1626256364850,
2021-07-14 11:54:35 AM,-0.110000,1626256364853,
2021-07-14 11:54:35 AM,-0.120000,1626256364856,
2021-07-14 11:54:35 AM,-0.150000,1626256364860,
2021-07-14 11:54:35 AM,-0.150000,1626256364863,
2021-07-14 11:54:35 AM,-0.180000,1626256364866,
2021-07-14 11:54:35 AM,-0.190000,1626256364870,
2021-07-14 11:54:35 AM,-0.180000,1626256364873,
2021-07-14 11:54:35 AM,-0.140000,1626256364876,
2021-07-14 11:54:35 AM,-0.120000,1626256364880,
2021-07-14 11:54:35 AM,-0.100000,1626256364883,
2021-07-14 11:54:35 AM,-0.080000,1626256364886,
2021-07-14 11:54:35 AM,-0.100000,1626256364890,
2021-07-14 11:54:35 AM,-0.130000,1626256364893,
2021-07-14 11:54:35 AM,-0.160000,1626256364896,
2021-07-14 11:54:35 AM,-0.190000,1626256364900,
2021-07-14 11:54:35 AM,-0.210000,1626256364903,
2021-07-14 11:54:35 AM,-0.240000,1626256364906,
2021-07-14 11:54:35 AM,-0.260000,1626256364910,
2021-07-14 11:54:35 AM,-0.260000,1626256364913,
2021-07-14 11:54:35 AM,-0.260000,1626256364916,
2021-07-14 11:54:35 AM,-0.250000,1626256364920,
2021-07-14 11:54:35 AM,-0.230000,1626256364923,
2021-07-14 11:54:35 AM,-0.200000,1626256364926,
2021-07-14 11:54:35 AM,-0.190000,1626256364930,
2021-07-14 11:54:35 AM,-0.170000,1626256364933,
2021-07-14 11:54:35 AM,-0.150000,1626256364936,
2021-07-14 11:54:35 AM,-0.120000,1626256364940,
2021-07-14 11:54:35 AM,-0.110000,1626256364943,
2021-07-14 11:54:35 AM,-0.130000,1626256364946,
2021-07-14 11:54:35 AM,-0.140000,1626256364950,
2021-07-14 11:54:35 AM,-0.160000,1626256364953,
2021-07-14 11:54:35 AM,-0.180000,1626256364956,
2021-07-14 11:54:35 AM,-0.220000,1626256364960,
2021-07-14 11:54:35 AM,-0.260000,1626256364963,
2021-07-14 11:54:35 AM,-0.280000,1626256364966,
2021-07-14 11:54:35 AM,-0.280000,1626256364970,
2021-07-14 11:54:35 AM,-0.270000,1626256364973,
2021-07-14 11:54:35 AM,-0.250000,1626256364976,
2021-07-14 11:54:35 AM,-0.220000,1626256364980,
2021-07-14 11:54:35 AM,-0.190000,1626256364983,
2021-07-14 11:54:35 AM,-0.170000,1626256364986,
2021-07-14 11:54:35 AM,-0.150000,1626256364990,
2021-07-14 11:54:35 AM,-0.140000,1626256364993,
2021-07-14 11:54:35 AM,-0.140000,1626256364996,
2021-07-14 11:54:36 AM,-0.150000,1626256365000,
2021-07-14 11:54:36 AM,-0.160000,1626256365003,
2021-07-14 11:54:36 AM,-0.140000,1626256365006,
2021-07-14 11:54:36 AM,-0.140000,1626256365010,
2021-07-14 11:54:36 AM,-0.140000,1626256365013,
2021-07-14 11:54:36 AM,-0.140000,1626256365016,
2021-07-14 11:54:36 AM,-0.150000,1626256365020,
2021-07-14 11:54:36 AM,-0.150000,1626256365023,
2021-07-14 11:54:36 AM,-0.160000,1626256365026,
2021-07-14 11:54:36 AM,-0.190000,1626256365030,
2021-07-14 11:54:36 AM,-0.200000,1626256365033,
2021-07-14 11:54:36 AM,-0.240000,1626256365036,
2021-07-14 11:54:36 AM,-0.270000,1626256365040,
2021-07-14 11:54:36 AM,-0.280000,1626256365043,
2021-07-14 11:54:36 AM,-0.290000,1626256365046,
2021-07-14 11:54:36 AM,-0.290000,1626256365050,
2021-07-14 11:54:36 AM,-0.310000,1626256365053,
2021-07-14 11:54:36 AM,-0.380000,1626256365056,
2021-07-14 11:54:36 AM,-0.490000,1626256365060,
2021-07-14 11:54:36 AM,-0.610000,1626256365063,
2021-07-14 11:54:36 AM,-0.740000,1626256365066,
2021-07-14 11:54:36 AM,-0.850000,1626256365070,
2021-07-14 11:54:36 AM,-0.930000,1626256365073,
2021-07-14 11:54:36 AM,-0.990000,1626256365076,
2021-07-14 11:54:36 AM,-1.020000,1626256365080,
2021-07-14 11:54:36 AM,-1.020000,1626256365083,
2021-07-14 11:54:36 AM,-0.980000,1626256365086,
2021-07-14 11:54:36 AM,-0.950000,1626256365090,
2021-07-14 11:54:36 AM,-0.890000,1626256365093,
2021-07-14 11:54:36 AM,-0.820000,1626256365096,
2021-07-14 11:54:36 AM,-0.730000,1626256365100,
2021-07-14 11:54:36 AM,-0.630000,1626256365103,
2021-07-14 11:54:36 AM,-0.550000,1626256365106,
2021-07-14 11:54:36 AM,-0.480000,1626256365110,
2021-07-14 11:54:36 AM,-0.430000,1626256365113,
2021-07-14 11:54:36 AM,-0.390000,1626256365116,
2021-07-14 11:54:36 AM,-0.340000,1626256365120,
2021-07-14 11:54:36 AM,-0.280000,1626256365123,
2021-07-14 11:54:36 AM,-0.220000,1626256365126,
2021-07-14 11:54:36 AM,-0.190000,1626256365130,
2021-07-14 11:54:36 AM,-0.170000,1626256365133,
2021-07-14 11:54:36 AM,-0.160000,1626256365136,
2021-07-14 11:54:36 AM,-0.140000,1626256365140,
2021-07-14 11:54:36 AM,-0.120000,1626256365143,
2021-07-14 11:54:36 AM,-0.090000,1626256365146,
2021-07-14 11:54:36 AM,-0.090000,1626256365150,
2021-07-14 11:54:36 AM,-0.060000,1626256365153,
2021-07-14 11:54:36 AM,-0.050000,1626256365156,
2021-07-14 11:54:36 AM,-0.040000,1626256365160,
2021-07-14 11:54:36 AM,-0.010000,1626256365163,
2021-07-14 11:54:36 AM,0.020000,1626256365166,
2021-07-14 11:54:36 AM,0.060000,1626256365170,
2021-07-14 11:54:36 AM,0.080000,1626256365173,
2021-07-14 11:54:36 AM,0.080000,1626256365176,
2021-07-14 11:54:36 AM,0.060000,1626256365180,
2021-07-14 11:54:36 AM,0.030000,1626256365183,
2021-07-14 11:54:36 AM,0.010000,1626256365186,
2021-07-14 11:54:36 AM,0.030000,1626256365190,
2021-07-14 11:54:36 AM,0.160000,1626256365193,
2021-07-14 11:54:36 AM,0.430000,1626256365196,
2021-07-14 11:54:36 AM,0.920000,1626256365200,
2021-07-14 11:54:36 AM,1.580000,1626256365203,
2021-07-14 11:54:36 AM,2.280000,1626256365206,
2021-07-14 11:54:36 AM,2.920000,1626256365210,
2021-07-14 11:54:36 AM,3.290000,1626256365213,
2021-07-14 11:54:36 AM,3.270000,1626256365216,
2021-07-14 11:54:36 AM,2.530000,1626256365220,
2021-07-14 11:54:36 AM,0.660000,1626256365223,
2021-07-14 11:54:36 AM,-2.560000,1626256365226,
2021-07-14 11:54:36 AM,-6.770000,1626256365230,
2021-07-14 11:54:36 AM,-11.060000,1626256365233,
2021-07-14 11:54:36 AM,-14.070000,1626256365236,
2021-07-14 11:54:36 AM,-14.910000,1626256365240,
2021-07-14 11:54:36 AM,-13.380000,1626256365243,
2021-07-14 11:54:36 AM,-10.190000,1626256365246,
2021-07-14 11:54:36 AM,-6.390000,1626256365250,
2021-07-14 11:54:36 AM,-2.790000,1626256365253,
2021-07-14 11:54:36 AM,0.080000,1626256365256,
2021-07-14 11:54:36 AM,2.100000,1626256365260,
2021-07-14 11:54:36 AM,3.230000,1626256365263,
2021-07-14 11:54:36 AM,3.660000,1626256365266,
2021-07-14 11:54:36 AM,3.560000,1626256365270,
2021-07-14 11:54:36 AM,3.090000,1626256365273,
2021-07-14 11:54:36 AM,2.410000,1626256365276,
2021-07-14 11:54:36 AM,1.700000,1626256365280,
2021-07-14 11:54:36 AM,1.070000,1626256365283,
2021-07-14 11:54:36 AM,0.570000,1626256365286,
2021-07-14 11:54:36 AM,0.220000,1626256365290,
2021-07-14 11:54:36 AM,0.010000,1626256365293,
2021-07-14 11:54:36 AM,-0.110000,1626256365296,
2021-07-14 11:54:36 AM,-0.150000,1626256365300,
2021-07-14 11:54:36 AM,-0.180000,1626256365303,
2021-07-14 11:54:36 AM,-0.180000,1626256365306,
2021-07-14 11:54:36 AM,-0.200000,1626256365310,
2021-07-14 11:54:36 AM,-0.210000,1626256365313,
2021-07-14 11:54:36 AM,-0.230000,1626256365316,
2021-07-14 11:54:36 AM,-0.250000,1626256365320,
2021-07-14 11:54:36 AM,-0.260000,1626256365323,
2021-07-14 11:54:36 AM,-0.260000,1626256365326,
2021-07-14 11:54:36 AM,-0.260000,1626256365330,
2021-07-14 11:54:36 AM,-0.260000,1626256365333,
2021-07-14 11:54:36 AM,-0.290000,1626256365336,
2021-07-14 11:54:36 AM,-0.330000,1626256365340,
2021-07-14 11:54:36 AM,-0.350000,1626256365343,
2021-07-14 11:54:36 AM,-0.340000,1626256365346,
2021-07-14 11:54:36 AM,-0.340000,1626256365350,
2021-07-14 11:54:36 AM,-0.320000,1626256365353,
2021-07-14 11:54:36 AM,-0.280000,1626256365356,
2021-07-14 11:54:36 AM,-0.240000,1626256365360,
2021-07-14 11:54:36 AM,-0.220000,1626256365363,
2021-07-14 11:54:36 AM,-0.240000,1626256365366,
2021-07-14 11:54:36 AM,-0.280000,1626256365370,
2021-07-14 11:54:36 AM,-0.360000,1626256365373,
2021-07-14 11:54:36 AM,-0.410000,1626256365376,
2021-07-14 11:54:36 AM,-0.420000,1626256365380,
2021-07-14 11:54:36 AM,-0.420000,1626256365383,
2021-07-14 11:54:36 AM,-0.430000,1626256365386,
2021-07-14 11:54:36 AM,-0.470000,1626256365390,
2021-07-14 11:54:36 AM,-0.520000,1626256365393,
2021-07-14 11:54:36 AM,-0.570000,1626256365396,
